1454,13513184;-0,51401365
1454,13916016;-0,51562500
1454,14306641;-0,51562500
1454,14697266;-0,51562500
1454,15100098;-0,51804197
1454,15551758;-0,51723635
1454,15905762;-0,51562500
1454,16308594;-0,51562500
1454,16748047;-0,51562500
1454,17126465;-0,51723635
1454,17517090;-0,51884758
1454,17907715;-0,51884758
1454,18322754;-0,51884758
1454,18725586;-0,51884758
1454,19116211;-0,51884758
1454,19506836;-0,51884758
1454,19897461;-0,51884758
1454,20300293;-0,52126467
1454,20703125;-0,52207029
1454,21105957;-0,52207029
1454,21496582;-0,52126467
1454,21911621;-0,52207029
1454,22326660;-0,52207029
1454,22705078;-0,52287591
1454,23107910;-0,52207029
1454,23510742;-0,52448726
1454,23913574;-0,52529299
1454,24291992;-0,52529299
1454,24694824;-0,52690423
1454,25122070;-0,52770996
1454,25500488;-0,52851558
1454,25915527;-0,53012693
1454,26293945;-0,53012693
1454,26721191;-0,53415525
1454,27111816;-0,53657222
1454,27502441;-0,53818357
1454,27893066;-0,53818357
1454,28320313;-0,53898919
1454,28710938;-0,53898919
1454,29101563;-0,53898919
1454,29492188;-0,53979492
1454,29956055;-0,54140627
1454,30310059;-0,54140627
1454,30700684;-0,54301751
1454,31091309;-0,54301751
1454,31506348;-0,54543459
1454,31896973;-0,54543459
1454,32299805;-0,54624021
1454,32714844;-0,54785156
1454,33105469;-0,54785156
1454,33605957;-0,54946291
1454,33898926;-0,54946291
1454,34350586;-0,55107415
1454,34716797;-0,55349123
1454,35107422;-0,55429685
1454,35485840;-0,55429685
1454,35913086;-0,55429685
1454,36315918;-0,55590820
1454,36706543;-0,55751956
1454,37109375;-0,55993652
1454,37500000;-0,56074214
1454,37902832;-0,56235349
1454,38305664;-0,56235349
1454,38708496;-0,56396484
1454,39099121;-0,56396484
1454,39477539;-0,56557620
1454,39916992;-0,56638181
1454,40295410;-0,56879878
1454,40698242;-0,57202148
1454,41149902;-0,57363284
1454,41516113;-0,57524407
1454,41918945;-0,57685542
1454,42297363;-0,57685542
1454,42724609;-0,57766116
1454,43090820;-0,57604980
1454,43518066;-0,57363284
1454,43896484;-0,57121575
1454,44311523;-0,56799316
1454,44714355;-0,56396484
1454,45104980;-0,56074214
1454,45495605;-0,55429685
1454,45898438;-0,55107415
1454,46301270;-0,54462886
1454,46691895;-0,54060054
1454,47106934;-0,53254390
1454,47509766;-0,52770996
1454,47912598;-0,52126467
1454,48291016;-0,51562500
1454,48754883;-0,51079094
1454,49096680;-0,50595701
1454,49560547;-0,50273430
1454,49914551;-0,50031734
1454,50292969;-0,49951172
1454,50695801;-0,49790037
1454,51098633;-0,49548340
1454,51538086;-0,49306643
1454,51892090;-0,49145508
1454,52294922;-0,48903811
1454,52697754;-0,48662102
1454,53100586;-0,48500979
1454,53503418;-0,48339844
1454,53906250;-0,48339844
1454,54345703;-0,48259270
1454,54699707;-0,48098147
1454,55102539;-0,48017573
1454,55505371;-0,48259270
1454,55908203;-0,48178709
1454,56298828;-0,48178709
1454,56701660;-0,48017573
1454,57116699;-0,48017573
1454,57495117;-0,48017573
1454,57910156;-0,47775877
1454,58300781;-0,47775877
1454,58715820;-0,47775877
1454,59094238;-0,47856438
1454,59497070;-0,48017573
1454,59899902;-0,48017573
1454,60302734;-0,48017573
1454,60693359;-0,48098147
1454,61108398;-0,48098147
1454,61499023;-0,48259270
1454,61889648;-0,48339844
1454,63781738;-0,48581541
1454,63781738;-0,48903811
1454,63781738;-0,48984373
1454,63781738;-0,49064934
1454,63903809;-0,49306643
1454,64306641;-0,49628901
1454,64733887;-0,49951172
1454,65124512;-0,50273430
1454,65515137;-0,50434566
1454,65917969;-0,50595701
1454,66308594;-0,50837398
1454,66711426;-0,51159668
1454,67114258;-0,51240230
1454,67517090;-0,51401365
1454,67895508;-0,51723635
1454,68322754;-0,52045894
1454,68713379;-0,52207029
1454,69091797;-0,52207029
1454,69506836;-0,52368164
1454,69897461;-0,52448726
1454,71130371;-0,52529299
1454,71130371;-0,52851558
1454,71130371;-0,52851558
1454,71508789;-0,53093255
1454,71972656;-0,53254390
1454,72314453;-0,53173828
1454,72705078;-0,53496087
1454,73132324;-0,53657222
1454,73498535;-0,53898919
1454,73913574;-0,53979492
1454,74291992;-0,54060054
1454,74707031;-0,54140627
1454,75085449;-0,54301751
1454,75500488;-0,54624021
1454,75891113;-0,54785156
1454,76306152;-0,55107415
1454,76708984;-0,55268550
1454,77099609;-0,55349123
1454,77490234;-0,55429685
1454,77905273;-0,55590820
1454,78808594;-0,55751956
1454,78808594;-0,55913079
1454,79382324;-0,56074214
1454,79516602;-0,56235349
1454,80041504;-0,56315911
1454,80334473;-0,56315911
1454,80749512;-0,56557620
1454,81127930;-0,56718743
1454,81530762;-0,56718743
1454,81896973;-0,56960452
1454,82299805;-0,57041013
1454,82702637;-0,57202148
1454,83105469;-0,57363284
1454,83508301;-0,57685542
1454,83898926;-0,57927239
1454,84313965;-0,58168948
1454,84704590;-0,58571780
1454,85107422;-0,58491206
1454,85485840;-0,58894038
1454,85913086;-0,59055173
1454,86303711;-0,59135735
1454,86694336;-0,59135735
1454,87109375;-0,59296870
1454,87500000;-0,59377444
1454,87915039;-0,59619141
1454,88293457;-0,59780276
1454,88696289;-0,59860837
1454,89111328;-0,59941399
1454,89501953;-0,60183108
1454,89904785;-0,60263669
1454,90307617;-0,60424805
1454,90710449;-0,60666502
1454,91101074;-0,60827637
1454,91503906;-0,60908198
1454,91894531;-0,60908198
1454,92309570;-0,61149895
1454,92700195;-0,61230469
1454,93103027;-0,61391604
1454,93493652;-0,61552727
1454,95324707;-0,61874998
1454,95324707;-0,62116694
1454,95324707;-0,62197268
1454,95324707;-0,62358391
1454,95507813;-0,62438965
1454,95922852;-0,62438965
1454,96337891;-0,62519526
1454,96728516;-0,62519526
1454,97131348;-0,62358391
1454,97509766;-0,62277830
1454,97900391;-0,62197268
1454,98303223;-0,61794436
1454,98706055;-0,61311030
1454,99096680;-0,60908198
1454,99499512;-0,60424805
1454,99890137;-0,59941399
1455,00305176;-0,59458005
1455,00708008;-0,58894038
1455,01098633;-0,58330071
1455,01501465;-0,58007813
1455,01928711;-0,57604980
1455,02319336;-0,57041013
1455,02722168;-0,56718743
1455,03100586;-0,56396484
1455,03515625;-0,56074214
1455,03918457;-0,55751956
1455,04309082;-0,55429685
1455,04699707;-0,55349123
1455,05114746;-0,55107415
1455,05505371;-0,54865718
1455,05908203;-0,54543459
1455,06298828;-0,54462886
1455,06701660;-0,54462886
1455,07104492;-0,54462886
1455,07507324;-0,54382324
1455,07897949;-0,54301751
1455,08300781;-0,54221189
1455,08703613;-0,54221189
1455,09094238;-0,54221189
1455,09497070;-0,54140627
1455,09924316;-0,53979492
1455,10314941;-0,53898919
1455,10693359;-0,53818357
1455,11108398;-0,53818357
1455,11499023;-0,53657222
1455,11962891;-0,53496087
1455,12304688;-0,53737795
1455,12707520;-0,53737795
1455,13098145;-0,53818357
1455,13513184;-0,53818357
1455,13916016;-0,54060054
1455,14306641;-0,54060054
1455,14697266;-0,53979492
1455,15100098;-0,54221189
1455,15502930;-0,54382324
1455,15893555;-0,54624021
1455,16296387;-0,54946291
1455,16699219;-0,55107415
1455,17089844;-0,55268550
1455,17492676;-0,55590820
1455,17919922;-0,55751956
1455,18322754;-0,56154788
1455,18713379;-0,56396484
1455,19128418;-0,56879878
1455,19519043;-0,57121575
1455,19921875;-0,57524407
1455,20324707;-0,57685542
1455,20727539;-0,57685542
1455,21105957;-0,57846677
1455,21508789;-0,58088374
1455,21899414;-0,58330071
1455,22290039;-0,58571780
1455,22705078;-0,58652341
1455,23107910;-0,58894038
1455,23498535;-0,59135735
1455,23901367;-0,59296870
1455,24291992;-0,59296870
1455,24707031;-0,59458005
1455,25097656;-0,59377444
1455,25500488;-0,59296870
1455,25891113;-0,59135735
1455,26293945;-0,59135735
1455,26684570;-0,59135735
1455,27087402;-0,59135735
1455,27514648;-0,59296870
1455,27893066;-0,59216309
1455,28320313;-0,59216309
1455,28698730;-0,59458005
1455,29113770;-0,59458005
1455,29516602;-0,59619141
1455,29907227;-0,59619141
1455,30322266;-0,59538567
1455,30700684;-0,59699702
1455,31091309;-0,59699702
1455,31494141;-0,59780276
1455,31884766;-0,59941399
1455,32299805;-0,59941399
1455,32690430;-0,60102534
1455,33093262;-0,60424805
1455,33496094;-0,60424805
1455,34411621;-0,60505366
1455,34411621;-0,60585940
1455,34704590;-0,60747063
1455,35119629;-0,60827637
1455,35522461;-0,60827637
1455,35900879;-0,60747063
1455,36315918;-0,60908198
1455,36694336;-0,61230469
1455,37109375;-0,61230469
1455,37500000;-0,61230469
1455,37902832;-0,61391604
1455,38293457;-0,61472166
1455,38708496;-0,61391604
1455,39099121;-0,61472166
1455,39501953;-0,61552727
1455,39904785;-0,61552727
1455,40307617;-0,61552727
1455,40698242;-0,61713862
1455,41088867;-0,61794436
1455,41491699;-0,61874998
1455,42419434;-0,62116694
1455,42419434;-0,62197268
1455,42980957;-0,62197268
1455,43188477;-0,62358391
1455,43652344;-0,62197268
1455,44189453;-0,62197268
1455,44311523;-0,62197268
1455,44702148;-0,62277830
1455,45300293;-0,62519526
1455,45556641;-0,62519526
1455,45898438;-0,62680662
1455,46301270;-0,62761223
1455,46716309;-0,63083494
1455,47106934;-0,63083494
1455,47497559;-0,63325191
1455,47924805;-0,63325191
1455,48303223;-0,63405764
1455,48718262;-0,63325191
1455,49108887;-0,63325191
1455,49523926;-0,63486326
1455,49902344;-0,63486326
1455,50317383;-0,63566887
1455,50708008;-0,63728023
1455,51123047;-0,63889158
1455,51525879;-0,63969719
1455,51904297;-0,64130855
1455,52294922;-0,64291990
1455,52746582;-0,64291990
1455,53125000;-0,64372551
1455,53503418;-0,64453125
1455,53967285;-0,64372551
1455,54321289;-0,64453125
1455,54711914;-0,64291990
1455,55114746;-0,64130855
1455,55505371;-0,64130855
1455,55895996;-0,63889158
1455,56298828;-0,63486326
1455,56701660;-0,63002932
1455,57104492;-0,62519526
1455,57519531;-0,62116694
1455,57910156;-0,61552727
1455,58300781;-0,60908198
1455,58703613;-0,60263669
1455,59130859;-0,59780276
1455,59497070;-0,59296870
1455,59912109;-0,58813477
1455,60302734;-0,58330071
1455,60717773;-0,57846677
1455,61096191;-0,57282710
1455,61511230;-0,56960452
1455,61914063;-0,56557620
1455,62316895;-0,56315911
1455,62719727;-0,56074214
1455,63110352;-0,55993652
1455,63500977;-0,55671382
1455,63952637;-0,55429685
1455,64294434;-0,55187988
1455,64697266;-0,54785156
1455,65100098;-0,54624021
1455,65539551;-0,54462886
1455,65966797;-0,54382324
1455,66308594;-0,54140627
1455,66809082;-0,54221189
1455,67089844;-0,54301751
1455,67504883;-0,54221189
1455,67907715;-0,54140627
1455,68298340;-0,53979492
1455,68688965;-0,53979492
1455,69104004;-0,53979492
1455,69494629;-0,53818357
1455,69897461;-0,53818357
1455,70288086;-0,53657222
1455,70703125;-0,53818357
1455,71105957;-0,53657222
1455,71496582;-0,53415525
1455,71887207;-0,53415525
1455,72302246;-0,53415525
1455,72692871;-0,53415525
1455,73095703;-0,53496087
1455,73486328;-0,53737795
1455,73901367;-0,53898919
1455,74304199;-0,54060054
1455,74707031;-0,54221189
1455,75146484;-0,54624021
1455,75512695;-0,54865718
1455,75903320;-0,55107415
1455,76293945;-0,55429685
1455,76696777;-0,55671382
1455,77111816;-0,55832517
1455,77490234;-0,56074214
1455,77893066;-0,56235349
1455,78283691;-0,56557620
1455,78710938;-0,56718743
1455,79089355;-0,56718743
1455,79565430;-0,57041013
1455,80114746;-0,57363284
1455,80297852;-0,57685542
1455,80688477;-0,57846677
1455,81091309;-0,58007813
1455,81518555;-0,58168948
1455,81896973;-0,58007813
1455,82299805;-0,58168948
1455,82702637;-0,58168948
1455,83093262;-0,58330071
1455,83508301;-0,58491206
1455,83898926;-0,58652341
1455,84362793;-0,58571780
1455,84680176;-0,58652341
1455,85107422;-0,58652341
1455,85485840;-0,58894038
1455,85888672;-0,58974612
1455,86291504;-0,58974612
1455,86694336;-0,58974612
1455,87097168;-0,59135735
1455,87561035;-0,59296870
1455,87963867;-0,59458005
1455,88317871;-0,59780276
1455,88696289;-0,59860837
1455,89099121;-0,59941399
1455,89489746;-0,60263669
1455,89916992;-0,60344231
1455,90319824;-0,60505366
1455,90698242;-0,60666502
1455,91088867;-0,60908198
1455,91503906;-0,60908198
1455,91894531;-0,60908198
1455,92297363;-0,61069334
1455,92687988;-0,61472166
1455,93090820;-0,61713862
1455,93493652;-0,62197268
1455,93957520;-0,62277830
1455,94287109;-0,62277830
1455,94702148;-0,62358391
1455,95092773;-0,62358391
1455,95495605;-0,62519526
1455,95886230;-0,62519526
1455,96301270;-0,62680662
1455,96704102;-0,62600100
1455,97094727;-0,62680662
1455,97509766;-0,62841797
1455,97912598;-0,63164055
1455,98291016;-0,63325191
1455,98693848;-0,63405764
1455,99084473;-0,63486326
1455,99499512;-0,63486326
1455,99890137;-0,63486326
1456,00305176;-0,63728023
1456,00708008;-0,63808596
1456,01110840;-0,63969719
1456,01501465;-0,64050293
1456,01904297;-0,64211428
1456,02282715;-0,64291990
1456,02709961;-0,64291990
1456,03088379;-0,64453125
1456,03491211;-0,64614260
1456,03906250;-0,64936519
1456,04309082;-0,64855957
1456,04687500;-0,64775383
1456,05102539;-0,65017086
1456,05505371;-0,65097654
1456,05920410;-0,65258789
1456,06298828;-0,65258789
1456,06689453;-0,65419918
1456,07153320;-0,65419918
1456,07495117;-0,65419918
1456,07897949;-0,65419918
1456,08288574;-0,65419918
1456,08679199;-0,65581053
1456,09094238;-0,65742183
1456,09509277;-0,65742183
1456,09912109;-0,65742183
1456,10314941;-0,65903318
1456,10705566;-0,65903318
1456,11096191;-0,66064453
1456,11523438;-0,66306150
1456,11938477;-0,66547847
1456,12304688;-0,66708982
1456,12719727;-0,66708982
1456,13110352;-0,66708982
1456,13488770;-0,66708982
1456,13964844;-0,66950679
1456,14306641;-0,67031246
1456,14709473;-0,66870117
1456,15124512;-0,66628414
1456,15527344;-0,66386718
1456,15905762;-0,66225582
1456,16296387;-0,65903318
1456,16687012;-0,65661621
1456,17102051;-0,65339351
1456,17492676;-0,64855957
1456,17907715;-0,64453125
1456,18322754;-0,63808596
1456,18713379;-0,63244629
1456,19116211;-0,62680662
1456,19506836;-0,61955559
1456,19934082;-0,61552727
1456,20324707;-0,60908198
1456,20727539;-0,60505366
1456,21118164;-0,60102534
1456,21569824;-0,59780276
1456,21972656;-0,59458005
1456,22326660;-0,59135735
1456,22753906;-0,58894038
1456,23144531;-0,58813477
1456,23547363;-0,58571780
1456,23950195;-0,58491206
1456,24365234;-0,58330071
1456,24743652;-0,57846677
1456,25122070;-0,57604980
1456,25512695;-0,57443845
1456,25903320;-0,57363284
1456,26318359;-0,57363284
1456,26708984;-0,57524407
1456,27099609;-0,57121575
1456,27490234;-0,57041013
1456,27917480;-0,56960452
1456,28295898;-0,56638181
1456,28698730;-0,56396484
1456,29150391;-0,56315911
1456,29504395;-0,56396484
1456,29907227;-0,56235349
1456,30310059;-0,56235349
1456,30712891;-0,56074214
1456,31115723;-0,55913079
1456,31530762;-0,55913079
1456,31896973;-0,56154788
1456,32299805;-0,56074214
1456,32714844;-0,56074214
1456,33117676;-0,56074214
1456,33508301;-0,56154788
1456,33898926;-0,56315911
1456,34313965;-0,56557620
1456,34704590;-0,56879878
1456,35095215;-0,57041013
1456,35510254;-0,57282710
1456,35913086;-0,57524407
1456,36315918;-0,57846677
1456,36694336;-0,58007813
1456,37109375;-0,58330071
1456,37512207;-0,58491206
1456,37915039;-0,58652341
1456,38317871;-0,58813477
1456,38696289;-0,58974612
1456,39135742;-0,59296870
1456,39501953;-0,59296870
1456,39904785;-0,59619141
1456,40307617;-0,59538567
1456,40710449;-0,59619141
1456,41101074;-0,59780276
1456,41503906;-0,59780276
1456,41894531;-0,60183108
1456,42309570;-0,60183108
1456,42724609;-0,60424805
1456,43115234;-0,60585940
1456,43505859;-0,60585940
1456,43920898;-0,60747063
1456,44299316;-0,60585940
1456,44702148;-0,60908198
1456,45104980;-0,60827637
1456,45507813;-0,61069334
1456,45898438;-0,61230469
1456,46301270;-0,61391604
1456,46691895;-0,61472166
1456,47106934;-0,61552727
1456,47521973;-0,61874998
1456,47912598;-0,62036133
1456,48303223;-0,62197268
1456,48718262;-0,62116694
1456,49108887;-0,62277830
1456,49511719;-0,62519526
1456,49890137;-0,62761223
1456,50280762;-0,62761223
1456,50720215;-0,62841797
1456,51098633;-0,62841797
1456,51501465;-0,62761223
1456,51928711;-0,62841797
1456,52331543;-0,63083494
1456,52709961;-0,63083494
1456,53112793;-0,63325191
1456,53503418;-0,63164055
1456,53918457;-0,63405764
1456,54321289;-0,63486326
1456,54699707;-0,63647461
1456,55126953;-0,63808596
1456,55517578;-0,63969719
1456,55895996;-0,64050293
1456,56347656;-0,63969719
1456,56738281;-0,63808596
1456,57104492;-0,63808596
1456,57507324;-0,63647461
1456,57910156;-0,63808596
1456,58325195;-0,63969719
1456,58764648;-0,64050293
1456,59277344;-0,64130855
1456,59545898;-0,64372551
1456,59960938;-0,64372551
1456,60302734;-0,64533687
1456,60742188;-0,64694822
1456,61145020;-0,64694822
1456,61511230;-0,64694822
1456,61901855;-0,64936519
1456,62304688;-0,65017086
1456,62744141;-0,65178221
1456,63110352;-0,65258789
1456,63500977;-0,65339351
1456,63916016;-0,65258789
1456,64294434;-0,65419918
1456,64721680;-0,65339351
1456,65100098;-0,65339351
1456,65502930;-0,65419918
1456,65893555;-0,65581053
1456,66308594;-0,65581053
1456,66699219;-0,65581053
1456,67089844;-0,65581053
1456,67492676;-0,65581053
1456,67907715;-0,65500486
1456,68310547;-0,65661621
1456,68701172;-0,65661621
1456,69116211;-0,65742183
1456,69506836;-0,65903318
1456,69909668;-0,65903318
1456,70300293;-0,66064453
1456,70690918;-0,66306150
1456,71105957;-0,66467285
1456,71508789;-0,66950679
1456,71899414;-0,67031246
1456,72363281;-0,67111814
1456,72729492;-0,67192382
1456,73095703;-0,67192382
1456,73498535;-0,67192382
1456,74621582;-0,66950679
1456,74621582;-0,66708982
1456,74694824;-0,66306150
1456,75085449;-0,65903318
1456,75512695;-0,65419918
1456,75915527;-0,65097654
1456,76342773;-0,64614260
1456,76708984;-0,63969719
1456,77111816;-0,63486326
1456,77514648;-0,63002932
1456,77905273;-0,62519526
1456,78295898;-0,62036133
1456,78723145;-0,61552727
1456,79101563;-0,61230469
1456,79504395;-0,61069334
1456,79895020;-0,60585940
1456,80297852;-0,60102534
1456,80725098;-0,59780276
1456,81103516;-0,59619141
1456,81506348;-0,59296870
1456,81909180;-0,59135735
1456,82312012;-0,58813477
1456,82702637;-0,58652341
1456,83105469;-0,58491206
1456,83496094;-0,58330071
1456,83935547;-0,58168948
1456,84313965;-0,58088374
1456,84802246;-0,57927239
1456,85107422;-0,57846677
1456,85534668;-0,57685542
1456,85925293;-0,57685542
1456,86364746;-0,57524407
1456,86706543;-0,57363284
1456,87109375;-0,57202148
1456,87500000;-0,57041013
1456,87902832;-0,57121575
1456,88293457;-0,57041013
1456,88696289;-0,57041013
1456,89111328;-0,57041013
1456,89514160;-0,57282710
1456,89892578;-0,57363284
1456,90295410;-0,57363284
1456,90722656;-0,57202148
1456,91247559;-0,57202148
1456,91540527;-0,57363284
1456,91906738;-0,57524407
1456,92346191;-0,57524407
1456,92712402;-0,57685542
1456,93103027;-0,57685542
1456,93505859;-0,57766116
1456,93908691;-0,58007813
1456,94409180;-0,58168948
1456,94714355;-0,58330071
1456,95104980;-0,58571780
1456,95507813;-0,58813477
1456,95898438;-0,59135735
1456,96301270;-0,59296870
1456,96740723;-0,59458005
1456,97106934;-0,59538567
1456,97534180;-0,59619141
1456,97937012;-0,59941399
1456,98303223;-0,59941399
1456,98706055;-0,59941399
1456,99084473;-0,60102534
1456,99499512;-0,59941399
1456,99902344;-0,60183108
1457,00317383;-0,60102534
1457,00756836;-0,60263669
1457,01110840;-0,60263669
1457,01501465;-0,60424805
1457,01916504;-0,60505366
1457,02319336;-0,60424805
1457,02734375;-0,60585940
1457,03100586;-0,60585940
1457,03491211;-0,60585940
1457,03918457;-0,60747063
1457,04333496;-0,60908198
1457,04711914;-0,60747063
1457,05114746;-0,60747063
1457,05541992;-0,60908198
1457,05895996;-0,61069334
1457,06311035;-0,61149895
1457,06713867;-0,61230469
1457,07128906;-0,61552727
1457,07495117;-0,61874998
1457,07934570;-0,62036133
1457,08312988;-0,62036133
1457,08715820;-0,62116694
1457,09106445;-0,62116694
1457,09509277;-0,62116694
1457,09899902;-0,62197268
1457,10290527;-0,62358391
1457,10705566;-0,62680662
1457,11108398;-0,62761223
1457,11499023;-0,63002932
1457,11901855;-0,63002932
1457,12292480;-0,63164055
1457,12719727;-0,63325191
1457,13098145;-0,63647461
1457,13500977;-0,63647461
1457,13891602;-0,63889158
1457,14318848;-0,63808596
1457,14721680;-0,63969719
1457,15087891;-0,64050293
1457,15490723;-0,64050293
1457,15905762;-0,64130855
1457,16320801;-0,64372551
1457,16699219;-0,64453125
1457,17089844;-0,64453125
1457,17492676;-0,64372551
1457,17895508;-0,64453125
1457,18322754;-0,64614260
1457,18750000;-0,64533687
1457,19128418;-0,64614260
1457,19531250;-0,64694822
1457,19946289;-0,64936519
1457,20312500;-0,65097654
1457,20739746;-0,65178221
1457,21118164;-0,65258789
1457,21508789;-0,65339351
1457,21911621;-0,65419918
1457,22314453;-0,65661621
1457,22717285;-0,65822750
1457,23107910;-0,65903318
1457,23498535;-0,65742183
1457,23913574;-0,65822750
1457,24304199;-0,65742183
1457,24707031;-0,65903318
1457,25097656;-0,65903318
1457,25512695;-0,65903318
1457,25915527;-0,66064453
1457,26306152;-0,66064453
1457,26696777;-0,66225582
1457,27099609;-0,66547847
1457,27502441;-0,66789550
1457,27893066;-0,67031246
1457,28295898;-0,67192382
1457,28723145;-0,67353511
1457,29101563;-0,67595214
1457,29504395;-0,67756343
1457,29895020;-0,67998046
1457,30310059;-0,68320310
1457,30725098;-0,68642575
1457,31127930;-0,68642575
1457,31506348;-0,68642575
1457,31909180;-0,68642575
1457,32299805;-0,68803710
1457,32690430;-0,68803710
1457,33093262;-0,68562007
1457,33508301;-0,68159175
1457,33898926;-0,67998046
1457,34289551;-0,67514646
1457,34704590;-0,67192382
1457,35107422;-0,66708982
1457,35498047;-0,66225582
1457,35888672;-0,65661621
1457,36291504;-0,64936519
1457,36718750;-0,64291990
1457,37097168;-0,63647461
1457,37536621;-0,63083494
1457,37890625;-0,62519526
1457,38330078;-0,62116694
1457,38708496;-0,61794436
1457,39111328;-0,61391604
1457,39526367;-0,61069334
1457,39916992;-0,60908198
1457,40295410;-0,60747063
1457,40686035;-0,60585940
1457,41101074;-0,60424805
1457,41503906;-0,60183108
1457,41906738;-0,59941399
1457,42297363;-0,59780276
1457,42687988;-0,59619141
1457,43103027;-0,59458005
1457,43505859;-0,59296870
1457,43908691;-0,58974612
1457,45141602;-0,58732903
1457,45141602;-0,58652341
1457,45141602;-0,58491206
1457,45495605;-0,58168948
1457,45935059;-0,57927239
1457,46301270;-0,57685542
1457,46728516;-0,57604980
1457,47119141;-0,57282710
1457,47534180;-0,57041013
1457,47912598;-0,56879878
1457,48303223;-0,56718743
1457,48693848;-0,56718743
1457,49096680;-0,56718743
1457,49511719;-0,56879878
1457,49902344;-0,57041013
1457,50305176;-0,57041013
1457,50708008;-0,57202148
1457,51098633;-0,57202148
1457,51489258;-0,57282710
1457,51892090;-0,57524407
1457,52612305;-0,57685542
1457,52709961;-0,58168948
1457,53100586;-0,58571780
1457,53503418;-0,59135735
1457,53906250;-0,59377444
1457,54345703;-0,59619141
1457,54711914;-0,59619141
1457,55139160;-0,59860837
1457,55541992;-0,60102534
1457,55932617;-0,60263669
1457,56323242;-0,60424805
1457,56713867;-0,60747063
1457,57104492;-0,60908198
1457,57507324;-0,61230469
1457,57910156;-0,61552727
1457,58300781;-0,61794436
1457,58728027;-0,62036133
1457,59130859;-0,62197268
1457,59509277;-0,62600100
1457,59899902;-0,62680662
1457,60290527;-0,62680662
1457,60705566;-0,62841797
1457,61108398;-0,63002932
1457,61499023;-0,63002932
1457,62011719;-0,63002932
1457,62316895;-0,63325191
1457,62719727;-0,63405764
1457,63110352;-0,63486326
1457,63525391;-0,63486326
1457,63891602;-0,63647461
1457,64306641;-0,63728023
1457,64685059;-0,63969719
1457,65100098;-0,64050293
1457,65502930;-0,64130855
1457,65905762;-0,64453125
1457,66369629;-0,64372551
1457,66723633;-0,64372551
1457,67114258;-0,64372551
1457,67504883;-0,64372551
1457,67907715;-0,64372551
1457,68298340;-0,64372551
1457,68701172;-0,64372551
1457,69104004;-0,64614260
1457,69494629;-0,64614260
1457,69897461;-0,64694822
1457,70312500;-0,64775383
1457,70690918;-0,64775383
1457,71093750;-0,64936519
1457,71520996;-0,64936519
1457,71911621;-0,64936519
1457,72302246;-0,64855957
1457,72717285;-0,64775383
1457,73095703;-0,64775383
1457,73510742;-0,64775383
1457,73901367;-0,64614260
1457,74291992;-0,64453125
1457,74682617;-0,64453125
1457,75097656;-0,64533687
1457,75500488;-0,64614260
1457,75891113;-0,64614260
1457,76293945;-0,64533687
1457,76721191;-0,64775383
1457,77111816;-0,65017086
1457,77514648;-0,65178221
1457,77941895;-0,65419918
1457,78320313;-0,65419918
1457,78735352;-0,65581053
1457,79101563;-0,65581053
1457,79504395;-0,65581053
1457,79895020;-0,65581053
1457,80310059;-0,65581053
1457,80700684;-0,65581053
1457,81103516;-0,65581053
1457,81506348;-0,65661621
1457,81909180;-0,65742183
1457,82299805;-0,65903318
1457,83825684;-0,66064453
1457,83825684;-0,66225582
1457,83825684;-0,66628414
1457,83898926;-0,67031246
1457,84338379;-0,67514646
1457,84814453;-0,68239743
1457,85144043;-0,69125974
1457,85546875;-0,69931638
1457,85925293;-0,70737302
1457,86303711;-0,71381831
1457,86718750;-0,72026366
1457,87097168;-0,72348630
1457,87487793;-0,72670895
1457,87902832;-0,72993159
1457,88305664;-0,73154294
1457,88708496;-0,73476559
1457,89099121;-0,73637694
1457,89501953;-0,73798823
1457,89892578;-0,74121094
1457,90283203;-0,74362791
1457,90930176;-0,74765623
1457,91101074;-0,75087887
1457,91516113;-0,75410151
1457,91906738;-0,75732422
1457,92346191;-0,76054686
1457,92700195;-0,76296383
1457,93115234;-0,76215816
1457,93530273;-0,76296383
1457,93896484;-0,76215816
1457,94335938;-0,76135254
1457,94689941;-0,76054686
1457,95129395;-0,75893551
1457,95495605;-0,75732422
1457,95898438;-0,75410151
1457,96301270;-0,75087887
1457,96691895;-0,74604487
1457,97094727;-0,74362791
1457,97509766;-0,73959959
1457,97888184;-0,73637694
1457,98303223;-0,73315430
1457,98693848;-0,72832030
1457,99096680;-0,72590327
1457,99499512;-0,72106934
1457,99902344;-0,71542966
1458,00317383;-0,71220702
1458,00708008;-0,70737302
1458,01147461;-0,70253903
1458,01513672;-0,69851071
1458,01916504;-0,69287109
1458,02307129;-0,68803710
1458,02685547;-0,68400878
1458,03100586;-0,67998046
1458,03527832;-0,67514646
1458,03894043;-0,67031246
1458,04309082;-0,66547847
1458,04687500;-0,66064453
1458,05114746;-0,65419918
1458,05505371;-0,64775383
1458,05908203;-0,64372551
1458,06286621;-0,63808596
1458,06713867;-0,63486326
1458,07128906;-0,63244629
1458,07519531;-0,62841797
1458,07910156;-0,62519526
1458,08337402;-0,61874998
1458,08703613;-0,61552727
1458,09155273;-0,61069334
1458,09497070;-0,60747063
1458,09948730;-0,60424805
1458,10302734;-0,60183108
1458,10717773;-0,60021973
1458,11096191;-0,59941399
1458,11511230;-0,59619141
1458,11914063;-0,59458005
1458,12304688;-0,59458005
1458,12695313;-0,59377444
1458,13122559;-0,59377444
1458,13513184;-0,59296870
1458,13891602;-0,59296870
1458,14294434;-0,59458005
1458,14721680;-0,59941399
1458,15100098;-0,60102534
1458,15502930;-0,60263669
1458,15905762;-0,60585940
1458,16320801;-0,60827637
1458,16723633;-0,61069334
1458,17102051;-0,61230469
1458,17504883;-0,61230469
1458,17932129;-0,61149895
1458,18298340;-0,61149895
1458,18725586;-0,61230469
1458,19165039;-0,61230469
1458,19482422;-0,61230469
1458,19909668;-0,61230469
1458,20300293;-0,61230469
1458,20739746;-0,61230469
1458,21093750;-0,61230469
1458,21520996;-0,61230469
1458,21899414;-0,61230469
1458,22290039;-0,61311030
1458,22692871;-0,61230469
1458,23107910;-0,61069334
1458,23510742;-0,61149895
1458,23925781;-0,60908198
1458,24316406;-0,60908198
1458,24719238;-0,61069334
1458,25146484;-0,61069334
1458,25512695;-0,60908198
1458,25915527;-0,60908198
1458,26306152;-0,60908198
1458,26721191;-0,60908198
1458,27172852;-0,61069334
1458,27490234;-0,61230469
1458,27905273;-0,61069334
1458,28295898;-0,61069334
1458,28808594;-0,61149895
1458,29089355;-0,61230469
1458,29504395;-0,61391604
1458,30639648;-0,61472166
1458,30639648;-0,61794436
1458,30725098;-0,61955559
1458,31115723;-0,62036133
1458,31542969;-0,62116694
1458,31994629;-0,62116694
1458,32397461;-0,62116694
1458,32714844;-0,62197268
1458,33105469;-0,62197268
1458,33508301;-0,62197268
1458,33911133;-0,62197268
1458,34301758;-0,62197268
1458,34692383;-0,62197268
1458,35095215;-0,62197268
1458,35522461;-0,62197268
1458,35900879;-0,62036133
1458,36303711;-0,61874998
1458,36682129;-0,61794436
1458,37109375;-0,61472166
1458,37500000;-0,61472166
1458,37902832;-0,61391604
1458,38293457;-0,61230469
1458,38720703;-0,61230469
1458,39099121;-0,61069334
1458,39501953;-0,60747063
1458,39892578;-0,60585940
1458,40307617;-0,60424805
1458,40722656;-0,60183108
1458,41113281;-0,60102534
1458,41503906;-0,60424805
1458,41906738;-0,60505366
1458,42309570;-0,60344231
1458,42700195;-0,60263669
1458,43103027;-0,60263669
1458,43505859;-0,60263669
1458,43896484;-0,60102534
1458,44299316;-0,60102534
1458,44689941;-0,60263669
1458,45117188;-0,60424805
1458,45507813;-0,60585940
1458,45898438;-0,60827637
1458,46301270;-0,61149895
1458,46716309;-0,61552727
1458,47119141;-0,61874998
1458,47753906;-0,62277830
1458,47912598;-0,62680662
1458,48315430;-0,62841797
1458,48742676;-0,63164055
1458,49096680;-0,63486326
1458,49511719;-0,63808596
1458,49877930;-0,64130855
1458,50292969;-0,64614260
1458,50695801;-0,65258789
1458,51098633;-0,65983886
1458,51489258;-0,66789550
1458,51904297;-0,67595214
1458,52294922;-0,68320310
1458,52697754;-0,69206542
1458,53088379;-0,70092773
1458,53491211;-0,70978999
1458,53894043;-0,71865231
1458,54309082;-0,72832030
1458,54711914;-0,74121094
1458,55102539;-0,75087887
1458,55505371;-0,75893551
1458,55895996;-0,76860350
1458,56359863;-0,77666014
1458,56701660;-0,78310543
1458,57116699;-0,78713375
1458,57495117;-0,79196775
1458,57910156;-0,79599607
1458,58300781;-0,79760742
1458,58703613;-0,80083007
1458,59094238;-0,80485839
1458,59484863;-0,81210935
1458,59899902;-0,82097167
1458,60302734;-0,83386230
1458,60693359;-0,84594727
1458,61157227;-0,85722655
1458,61511230;-0,86931151
1458,61901855;-0,87736815
1458,62292480;-0,88220215
1458,62707520;-0,88461912
1458,63098145;-0,88542479
1458,63500977;-0,88381344
1458,63916016;-0,88220215
1458,64331055;-0,87656248
1458,64746094;-0,87172848
1458,65136719;-0,86528319
1458,65515137;-0,85883784
1458,65917969;-0,84997559
1458,66308594;-0,83950192
1458,66687012;-0,83063960
1458,67102051;-0,82177734
1458,67517090;-0,81210935
1458,67907715;-0,80083007
1458,68310547;-0,79196775
1458,68701172;-0,77988279
1458,69104004;-0,77102047
1458,69506836;-0,76054686
1458,69909668;-0,75087887
1458,70300293;-0,74121094
1458,70703125;-0,73154294
1458,71118164;-0,72187495
1458,71508789;-0,71462399
1458,71911621;-0,70576167
1458,72314453;-0,69770503
1458,72705078;-0,69125974
1458,73107910;-0,68562007
1458,73498535;-0,67917478
1458,73913574;-0,67272949
1458,74291992;-0,66708982
1458,74707031;-0,66064453
1458,75097656;-0,65419918
1458,75512695;-0,64936519
1458,75903320;-0,64291990
1458,76293945;-0,63808596
1458,76708984;-0,63325191
1458,77099609;-0,62841797
1458,77502441;-0,62438965
1458,77941895;-0,62036133
1458,78356934;-0,61552727
1458,78723145;-0,61230469
1458,79150391;-0,60747063
1458,79516602;-0,60263669
1458,79895020;-0,59699702
1458,80310059;-0,59377444
1458,80712891;-0,59055173
1458,81103516;-0,58813477
1458,81494141;-0,58491206
1458,81909180;-0,58007813
1458,82299805;-0,57846677
1458,82714844;-0,57846677
1458,83093262;-0,57846677
1458,83483887;-0,57846677
1458,83898926;-0,57685542
1458,84448242;-0,57685542
1458,84790039;-0,57685542
1458,85107422;-0,58007813
1458,85510254;-0,57846677
1458,85900879;-0,57846677
1458,86328125;-0,57846677
1458,86718750;-0,57846677
1458,87109375;-0,57685542
1458,87500000;-0,57685542
1458,87902832;-0,57846677
1458,88305664;-0,57846677
1458,88696289;-0,57846677
1458,89099121;-0,57846677
1458,89501953;-0,57846677
1458,89904785;-0,57685542
1458,90295410;-0,57685542
1458,90710449;-0,57604980
1458,91088867;-0,57604980
1458,91503906;-0,57685542
1458,91894531;-0,57846677
1458,93408203;-0,58168948
1458,93408203;-0,58491206
1458,93408203;-0,58652341
1458,93493652;-0,58813477
1458,93908691;-0,58974612
1458,94323730;-0,59055173
1458,94702148;-0,59135735
1458,95117188;-0,59296870
1458,95544434;-0,59538567
1458,95898438;-0,59699702
1458,96301270;-0,59860837
1458,96716309;-0,60263669
1458,97094727;-0,60424805
1458,97497559;-0,60585940
1458,97912598;-0,60827637
1458,98303223;-0,60747063
1458,98706055;-0,60827637
1458,99096680;-0,60827637
1458,99511719;-0,60827637
1458,99902344;-0,60988772
1459,00292969;-0,60908198
1459,00708008;-0,60908198
1459,01098633;-0,60908198
1459,01501465;-0,61391604
1459,01904297;-0,61874998
1459,02319336;-0,62438965
1459,02709961;-0,62922359
1459,03112793;-0,63325191
1459,03503418;-0,63969719
1459,03906250;-0,64533687
1459,04296875;-0,65097654
1459,04687500;-0,65661621
1459,05102539;-0,66547847
1459,05505371;-0,67514646
1459,05908203;-0,68884277
1459,06298828;-0,70576167
1459,06701660;-0,72751462
1459,07092285;-0,75007319
1459,07507324;-0,77263182
1459,07897949;-0,79196775
1459,08300781;-0,80888671
1459,08703613;-0,82499999
1459,09460449;-0,83789063
1459,09509277;-0,84916991
1459,09899902;-0,85722655
1459,10302734;-0,86206055
1459,10705566;-0,86689448
1459,11120605;-0,87011719
1459,11523438;-0,87333983
1459,11901855;-0,87575680
1459,12304688;-0,87817383
1459,12719727;-0,87978512
1459,13098145;-0,87978512
1459,13513184;-0,87897944
1459,13916016;-0,87656248
1459,14306641;-0,87495112
1459,14697266;-0,87172848
1459,15100098;-0,87253416
1459,15502930;-0,87172848
1459,15905762;-0,87253416
1459,16284180;-0,87172848
1459,16711426;-0,87575680
1459,17102051;-0,87656248
1459,17504883;-0,88139647
1459,17944336;-0,88461912
1459,18322754;-0,88945311
1459,18786621;-0,89348143
1459,19165039;-0,89831543
1459,19519043;-0,90073240
1459,19897461;-0,90395504
1459,20300293;-0,90476072
1459,20715332;-0,90556639
1459,21093750;-0,90556639
1459,21484375;-0,90476072
1459,21911621;-0,90234375
1459,22302246;-0,89912105
1459,22717285;-0,89589840
1459,23095703;-0,89428711
1459,23498535;-0,89187008
1459,23901367;-0,89187008
1459,24291992;-0,88542479
1459,24694824;-0,88542479
1459,25109863;-0,88300776
1459,25537109;-0,87978512
1459,25927734;-0,87897944
1459,26306152;-0,87656248
1459,26708984;-0,87575680
1459,27124023;-0,87333983
1459,27514648;-0,87333983
1459,27893066;-0,87333983
1459,28308105;-0,87414551
1459,28698730;-0,87333983
1459,29125977;-0,87333983
1459,29504395;-0,87333983
1459,29907227;-0,87333983
1459,30297852;-0,87011719
1459,30712891;-0,86689448
1459,31091309;-0,86206055
1459,31506348;-0,85722655
1459,31921387;-0,85078120
1459,32312012;-0,84433591
1459,32702637;-0,83789063
1459,33142090;-0,83144528
1459,33508301;-0,82499999
1459,33898926;-0,82177734
1459,34350586;-0,81855464
1459,34704590;-0,81533200
1459,35107422;-0,80888671
1459,35498047;-0,80405271
1459,35900879;-0,79599607
1459,36303711;-0,78955078
1459,36694336;-0,78310543
1459,37097168;-0,77666014
1459,37487793;-0,77263182
1459,37902832;-0,76699215
1459,38305664;-0,75974119
1459,38684082;-0,75410151
1459,39099121;-0,74604487
1459,39501953;-0,74040526
1459,39892578;-0,73637694
1459,40490723;-0,73073727
1459,40747070;-0,72751462
1459,41113281;-0,72429198
1459,41503906;-0,72026366
1459,41918945;-0,71704102
1459,42333984;-0,71140134
1459,42700195;-0,70576167
1459,43115234;-0,70253903
1459,43505859;-0,69689941
1459,43896484;-0,69125974
1459,44299316;-0,68481445
1459,44714355;-0,67998046
1459,45092773;-0,67675781
1459,45495605;-0,67192382
1459,45910645;-0,66708982
1459,46301270;-0,66064453
1459,46691895;-0,65419918
1459,47106934;-0,64694822
1459,47521973;-0,64050293
1459,47912598;-0,63486326
1459,48315430;-0,63002932
1459,48754883;-0,62680662
1459,49133301;-0,62197268
1459,49499512;-0,61874998
1459,49902344;-0,61633301
1459,50292969;-0,61391604
1459,50708008;-0,61230469
1459,51110840;-0,60908198
1459,51513672;-0,60908198
1459,51892090;-0,60666502
1459,52307129;-0,60424805
1459,52697754;-0,60263669
1459,53100586;-0,60263669
1459,53491211;-0,60102534
1459,53894043;-0,59860837
1459,54309082;-0,59538567
1459,54687500;-0,59458005
1459,55102539;-0,59216309
1459,55505371;-0,59216309
1459,55895996;-0,59135735
1459,56311035;-0,59135735
1459,56689453;-0,59458005
1459,57116699;-0,59619141
1459,57507324;-0,59860837
1459,57910156;-0,59941399
1459,58288574;-0,59941399
1459,58728027;-0,60424805
1459,59130859;-0,60747063
1459,59497070;-0,60908198
1459,59899902;-0,61230469
1459,60302734;-0,61311030
1459,60705566;-0,61552727
1459,61083984;-0,61794436
1459,61499023;-0,61874998
1459,61926270;-0,61955559
1459,63024902;-0,62116694
1459,63024902;-0,62197268
1459,63085938;-0,62197268
1459,63513184;-0,62277830
1459,63903809;-0,62358391
1459,64294434;-0,62358391
1459,64685059;-0,62358391
1459,65112305;-0,62358391
1459,65490723;-0,62438965
1459,65905762;-0,62519526
1459,66296387;-0,62519526
1459,66699219;-0,62600100
1459,67102051;-0,62680662
1459,67492676;-0,62841797
1459,67895508;-0,62841797
1459,68310547;-0,63002932
1459,68737793;-0,63002932
1459,69091797;-0,62841797
1459,69494629;-0,62841797
1459,69885254;-0,62841797
1459,70300293;-0,62680662
1459,70690918;-0,62438965
1459,71093750;-0,62197268
1459,71496582;-0,62036133
1459,71899414;-0,61552727
1459,72387695;-0,61149895
1459,72729492;-0,60505366
1459,73107910;-0,59860837
1459,73498535;-0,59619141
1459,73901367;-0,59296870
1459,74291992;-0,59216309
1459,74719238;-0,58974612
1459,75109863;-0,58894038
1459,75500488;-0,58410645
1459,75903320;-0,58168948
1459,76306152;-0,57846677
1459,76721191;-0,57846677
1459,77099609;-0,57363284
1459,77490234;-0,57282710
1459,77905273;-0,57041013
1459,78918457;-0,56879878
1459,78918457;-0,56638181
1459,79089355;-0,56396484
1459,79504395;-0,56154788
1459,79895020;-0,55913079
1459,80297852;-0,55671382
1459,80737305;-0,55429685
1459,81115723;-0,55349123
1459,81518555;-0,55268550
1459,81909180;-0,55107415
1459,82324219;-0,54946291
1459,82702637;-0,54785156
1459,83117676;-0,54785156
1459,83496094;-0,54624021
1459,83898926;-0,54301751
1459,84301758;-0,54301751
1459,84692383;-0,54140627
1459,85107422;-0,54060054
1459,85498047;-0,53979492
1459,85913086;-0,53979492
1459,86291504;-0,53737795
1459,86706543;-0,53737795
1459,87084961;-0,53979492
1459,87500000;-0,54140627
1459,87915039;-0,54221189
1459,88317871;-0,54462886
1459,88696289;-0,54624021
1459,89111328;-0,54704583
1459,89538574;-0,54946291
1459,89904785;-0,55268550
1459,90295410;-0,55429685
1459,90710449;-0,55590820
1459,91101074;-0,55751956
1459,91479492;-0,55993652
1459,91894531;-0,55993652
1459,92309570;-0,56074214
1459,92700195;-0,56074214
1459,93090820;-0,56396484
1459,93493652;-0,56638181
1459,93969727;-0,56638181
1459,94287109;-0,56718743
1459,94714355;-0,56879878
1459,95104980;-0,56960452
1459,95495605;-0,56960452
1459,95910645;-0,56960452
1459,96313477;-0,57041013
1459,96691895;-0,57041013
1459,97106934;-0,56879878
1459,97509766;-0,57041013
1459,97888184;-0,57041013
1459,98291016;-0,56960452
1459,98706055;-0,56879878
1459,99096680;-0,56638181
1459,99499512;-0,56396484
1459,99902344;-0,56315911
1460,00292969;-0,56235349
1460,00683594;-0,56154788
1460,01098633;-0,56074214
1460,01489258;-0,55993652
1460,03271484;-0,56074214
1460,03271484;-0,55993652
1460,03271484;-0,55751956
1460,03271484;-0,55590820
1460,03552246;-0,55429685
1460,03955078;-0,55268550
1460,04321289;-0,54946291
1460,04736328;-0,54624021
1460,05163574;-0,54301751
1460,05541992;-0,53979492
1460,05895996;-0,53657222
1460,06286621;-0,53415525
1460,06701660;-0,52851558
1460,07116699;-0,52690423
1460,07495117;-0,52448726
1460,07922363;-0,52207029
1460,08288574;-0,51965332
1460,08715820;-0,51723635
1460,09094238;-0,51481926
1460,09497070;-0,51240230
1460,09899902;-0,50837398
1460,10302734;-0,50273430
1460,10717773;-0,49870598
1460,11169434;-0,49467766
1460,11499023;-0,49145508
1460,11914063;-0,48662102
1460,12292480;-0,48339844
1460,12744141;-0,47856438
1460,13134766;-0,47373044
1460,13500977;-0,47292483
1460,13891602;-0,46889651
1460,14294434;-0,46647942
1460,14709473;-0,46406245
1460,15100098;-0,46083987
1460,15502930;-0,45922852
1460,15893555;-0,45761716
1460,16296387;-0,45600581
1460,16699219;-0,45520020
1460,17089844;-0,45439446
1460,17480469;-0,45278323
1460,17944336;-0,45117188
1460,18322754;-0,44956052
1460,18725586;-0,44714355
1460,19104004;-0,44633782
1460,19531250;-0,44714355
1460,19934082;-0,44956052
1460,20312500;-0,45197749
1460,20739746;-0,45761716
1460,21130371;-0,46325684
1460,21508789;-0,46728516
1460,21899414;-0,47050774
1460,22290039;-0,47534180
1460,22717285;-0,47856438
1460,23095703;-0,48178709
1460,23498535;-0,48259270
1460,23901367;-0,48500979
1460,24291992;-0,48903811
1460,24694824;-0,49226069
1460,25097656;-0,49628901
1460,25488281;-0,49951172
1460,25939941;-0,50515139
1460,26318359;-0,50837398
1460,26708984;-0,51079094
1460,27160645;-0,51320803
1460,27514648;-0,51562500
1460,27905273;-0,51804197
1460,28295898;-0,51965332
1460,28698730;-0,52368164
1460,29101563;-0,52368164
1460,29504395;-0,52448726
1460,29895020;-0,52368164
1460,30297852;-0,52207029
1460,30712891;-0,52126467
1460,31091309;-0,51884758
1460,31494141;-0,51723635
1460,31884766;-0,51401365
1460,32299805;-0,51240230
1460,32714844;-0,51079094
1460,33093262;-0,50756836
1460,34838867;-0,50595701
1460,34838867;-0,50273430
1460,34838867;-0,49870598
1460,34838867;-0,49628901
1460,35095215;-0,49226069
1460,35705566;-0,48903811
1460,35913086;-0,48662102
1460,36328125;-0,48500979
1460,36755371;-0,48339844
1460,37109375;-0,48098147
1460,37487793;-0,47856438
1460,37902832;-0,47614741
1460,38293457;-0,47373044
1460,38720703;-0,47211909
1460,39099121;-0,46970212
1460,39501953;-0,46809077
1460,39892578;-0,46728516
1460,40307617;-0,46647942
1460,40686035;-0,46325684
1460,41113281;-0,46245110
1460,41516113;-0,46245110
1460,41943359;-0,46164548
1460,42321777;-0,46083987
1460,42712402;-0,45842278
1460,43176270;-0,45761716
1460,43518066;-0,45600581
1460,43908691;-0,45600581
1460,44299316;-0,45600581
1460,44714355;-0,45520020
1460,45092773;-0,45600581
1460,45507813;-0,45439446
1460,45898438;-0,45439446
1460,46289063;-0,45600581
1460,46691895;-0,45761716
1460,47106934;-0,45922852
1460,47497559;-0,46083987
1460,47888184;-0,46406245
1460,48291016;-0,46567380
1460,48693848;-0,46889651
1460,49096680;-0,47050774
1460,49487305;-0,47453606
1460,49902344;-0,47695315
1460,50305176;-0,47937012
1460,50732422;-0,48339844
1460,51123047;-0,48662102
1460,51513672;-0,48984373
1460,51904297;-0,49145508
1460,52294922;-0,49306643
1460,52697754;-0,49628901
1460,53112793;-0,49951172
1460,53503418;-0,50112307
1460,53894043;-0,50273430
1460,54296875;-0,50515139
1460,54699707;-0,50676262
1460,55102539;-0,50998533
1460,55480957;-0,51240230
1460,55895996;-0,51240230
1460,56298828;-0,51401365
1460,56689453;-0,51481926
1460,57092285;-0,51562500
1460,57495117;-0,51562500
1460,57922363;-0,51723635
1460,58337402;-0,52045894
1460,58703613;-0,52207029
1460,59118652;-0,52287591
1460,59521484;-0,52287591
1460,59912109;-0,52529299
1460,60290527;-0,52690423
1460,60681152;-0,52851558
1460,61096191;-0,53173828
1460,61499023;-0,53334963
1460,61901855;-0,53576660
1460,62292480;-0,53898919
1460,62719727;-0,53979492
1460,63098145;-0,54301751
1460,63488770;-0,54462886
1460,64428711;-0,54624021
1460,64428711;-0,54704583
1460,64733887;-0,54704583
1460,65112305;-0,54946291
1460,65515137;-0,54946291
1460,65954590;-0,55268550
1460,66357422;-0,55349123
1460,66699219;-0,55429685
1460,67236328;-0,55429685
1460,67541504;-0,55751956
1460,67895508;-0,55751956
1460,68298340;-0,55832517
1460,68713379;-0,55913079
1460,69104004;-0,55913079
1460,69506836;-0,55993652
1460,69897461;-0,55913079
1460,70312500;-0,55913079
1460,70703125;-0,55913079
1460,71105957;-0,55913079
1460,71484375;-0,55913079
1460,71923828;-0,55993652
1460,72326660;-0,56235349
1460,72692871;-0,56074214
1460,73107910;-0,56235349
1460,73510742;-0,56315911
1460,73901367;-0,56235349
1460,74316406;-0,56235349
1460,74694824;-0,56235349
1460,75122070;-0,56074214
1460,75500488;-0,56074214
1460,75903320;-0,56396484
1460,76293945;-0,56396484
1460,76684570;-0,56557620
1460,77099609;-0,56638181
1460,77490234;-0,56638181
1460,77893066;-0,56638181
1460,78308105;-0,56638181
1460,78698730;-0,56638181
1460,79101563;-0,56638181
1460,79492188;-0,56557620
1460,79907227;-0,56396484
1460,80297852;-0,56235349
1460,80700684;-0,56074214
1460,81091309;-0,56154788
1460,81530762;-0,55993652
1460,81909180;-0,55832517
1460,82299805;-0,55671382
1460,82751465;-0,55429685
1460,83105469;-0,55107415
1460,83508301;-0,54946291
1460,83911133;-0,54785156
1460,84301758;-0,54624021
1460,84704590;-0,54382324
1460,85119629;-0,54140627
1460,85510254;-0,53979492
1460,85900879;-0,53496087
1460,86315918;-0,52851558
1460,86694336;-0,52207029
1460,87109375;-0,51159668
1460,87500000;-0,50434566
1460,87890625;-0,49467766
1460,88293457;-0,48259270
1460,88708496;-0,47211909
1460,89099121;-0,45922852
1460,89514160;-0,44633782
1460,89904785;-0,43183589
1460,90307617;-0,41894531
1460,90698242;-0,40605462
1460,91088867;-0,39558101
1460,91503906;-0,38349605
1460,91906738;-0,37705076
1460,92285156;-0,36657715
1460,92687988;-0,35771477
1460,93090820;-0,34804690
1460,93505859;-0,34079587
1460,93896484;-0,33354485
1460,94311523;-0,32790530
1460,94689941;-0,32387698
1460,95092773;-0,32065427
1460,95495605;-0,31582034
1460,95886230;-0,31179202
1460,96289063;-0,30856931
1460,96691895;-0,30776370
1460,97216797;-0,30615234
1460,97521973;-0,30454099
1460,97937012;-0,30454099
1460,98315430;-0,30373538
1460,98803711;-0,30292964
1460,99121094;-0,30212402
1460,99511719;-0,30131829
1460,99902344;-0,30292964
1461,00292969;-0,30292964
1461,00720215;-0,30212402
1461,01098633;-0,30212402
1461,01501465;-0,30131829
1461,01892090;-0,30131829
1461,02307129;-0,30212402
1461,02734375;-0,30131829
1461,03100586;-0,30212402
1461,03552246;-0,30292964
1461,03906250;-0,30534661
1461,04309082;-0,30856931
1461,04699707;-0,31420898
1461,05090332;-0,31743157
1461,05517578;-0,31984866
1461,05908203;-0,32307124
1461,06298828;-0,32709956
1461,06701660;-0,32871091
1461,07128906;-0,33193362
1461,07519531;-0,33515620
1461,07897949;-0,33837891
1461,08288574;-0,34321284
1461,08703613;-0,34643555
1461,09106445;-0,34804690
1461,09497070;-0,35046387
1461,09912109;-0,35368645
1461,10302734;-0,35690916
1461,10717773;-0,36254883
1461,11096191;-0,36496580
1461,11511230;-0,36899412
1461,11926270;-0,37382805
1461,12316895;-0,37705076
1461,12707520;-0,38027346
1461,13110352;-0,38349605
1461,13513184;-0,38752437
1461,13977051;-0,38994133
1461,14343262;-0,39155269
1461,14721680;-0,39477539
1461,15136719;-0,39477539
1461,15502930;-0,39558101
1461,15905762;-0,39638674
1461,16406250;-0,39880371
1461,16699219;-0,40122068
1461,17089844;-0,40202630
1461,17492676;-0,40444338
1461,17944336;-0,40605462
1461,18347168;-0,40766597
1461,18701172;-0,41088867
1461,19140625;-0,41330564
1461,19494629;-0,41491699
1461,19909668;-0,41813958
1461,20312500;-0,41975093
1461,20715332;-0,42539060
1461,21105957;-0,42861331
1461,21533203;-0,43344724
1461,21923828;-0,43747556
1461,22338867;-0,43908691
1461,22741699;-0,44230950
1461,23132324;-0,44472659
1461,23522949;-0,44472659
1461,23913574;-0,44633782
1461,24304199;-0,44956052
1461,24682617;-0,45278323
1461,25097656;-0,45600581
1461,25500488;-0,45600581
1461,25903320;-0,46003413
1461,26318359;-0,46083987
1461,26696777;-0,46406245
1461,27087402;-0,46245110
1461,27490234;-0,46325684
1461,28222656;-0,46406245
1461,28320313;-0,46325684
1461,28723145;-0,46325684
1461,29113770;-0,46406245
1461,29541016;-0,46406245
1461,29919434;-0,46647942
1461,30322266;-0,46889651
1461,30712891;-0,47211909
1461,31103516;-0,47373044
1461,31506348;-0,47695315
1461,31884766;-0,47937012
1461,32299805;-0,48259270
1461,32678223;-0,48581541
1461,33105469;-0,48823237
1461,33496094;-0,49145508
1461,33898926;-0,49306643
1461,34301758;-0,49548340
1461,34765625;-0,49790037
1461,35095215;-0,49951172
1461,35498047;-0,50192869
1461,35925293;-0,50273430
1461,36315918;-0,50515139
1461,36718750;-0,50434566
1461,37109375;-0,50515139
1461,37500000;-0,50595701
1461,37902832;-0,50917971
1461,38305664;-0,50998533
1461,38684082;-0,51079094
1461,39099121;-0,51159668
1461,39501953;-0,51320803
1461,39904785;-0,51562500
1461,40295410;-0,51884758
1461,40698242;-0,52207029
1461,41101074;-0,52448726
1461,41503906;-0,52690423
1461,41894531;-0,52851558
1461,42297363;-0,53012693
1461,42712402;-0,53173828
1461,43090820;-0,53334963
1461,43481445;-0,53657222
1461,43908691;-0,53898919
1461,44323730;-0,53979492
1461,44702148;-0,54221189
1461,45153809;-0,54140627
1461,45495605;-0,54140627
1461,45898438;-0,54221189
1461,46301270;-0,54221189
1461,46716309;-0,54301751
1461,47106934;-0,54140627
1461,47509766;-0,53818357
1461,47888184;-0,53496087
1461,48291016;-0,53093255
1461,48718262;-0,52690423
1461,49108887;-0,52287591
1461,49499512;-0,51884758
1461,49902344;-0,51481926
1461,50292969;-0,50917971
1461,50683594;-0,50434566
1461,51098633;-0,50273430
1461,51489258;-0,49870598
1461,51904297;-0,49548340
1461,52307129;-0,49306643
1461,52722168;-0,48984373
1461,53088379;-0,48984373
1461,53479004;-0,48662102
1461,53906250;-0,48500979
1461,54296875;-0,48420405
1461,54687500;-0,48339844
1461,55102539;-0,48178709
1461,55493164;-0,47856438
1461,55895996;-0,47856438
1461,56298828;-0,47856438
1461,56701660;-0,47856438
1461,57092285;-0,47856438
1461,57495117;-0,47856438
1461,57885742;-0,47695315
1461,58337402;-0,47695315
1461,58691406;-0,47534180
1461,59643555;-0,47534180
1461,59643555;-0,47534180
1461,59899902;-0,47695315
1461,60400391;-0,47695315
1461,60705566;-0,47695315
1461,61193848;-0,47534180
1461,61535645;-0,47614741
1461,61950684;-0,47534180
1461,62316895;-0,47614741
1461,62719727;-0,47614741
1461,63110352;-0,47614741
1461,63500977;-0,47695315
1461,63903809;-0,48017573
1461,64294434;-0,48098147
1461,64721680;-0,48259270
1461,65100098;-0,48339844
1461,65502930;-0,48500979
1461,65893555;-0,48662102
1461,67053223;-0,48984373
1461,67053223;-0,49145508
1461,67102051;-0,49306643
1461,67590332;-0,49467766
1461,67919922;-0,49628901
1461,68469238;-0,49790037
1461,68798828;-0,49951172
1461,69140625;-0,50273430
1461,69506836;-0,50273430
1461,69897461;-0,50273430
1461,70288086;-0,50515139
1461,70703125;-0,50595701
1461,71093750;-0,50595701
1461,71533203;-0,50756836
1461,71887207;-0,50595701
1461,72351074;-0,50595701
1461,72705078;-0,50917971
1461,73095703;-0,50837398
1461,73498535;-0,50998533
1461,73962402;-0,51079094
1461,74304199;-0,51240230
1461,74719238;-0,51481926
1461,75097656;-0,51804197
1461,75488281;-0,51723635
1461,75903320;-0,51884758
1461,76306152;-0,52045894
1461,76721191;-0,52207029
1461,77099609;-0,52368164
1461,77502441;-0,52529299
1461,77905273;-0,52690423
1461,78295898;-0,53012693
1461,78686523;-0,53093255
1461,79101563;-0,53334963
1461,79504395;-0,53496087
1461,79895020;-0,53657222
1461,80285645;-0,53818357
1461,80700684;-0,53737795
1461,81103516;-0,53979492
1461,81494141;-0,54060054
1461,81884766;-0,54140627
1461,82727051;-0,54221189
1461,82727051;-0,54462886
1461,83093262;-0,54462886
1461,83496094;-0,54624021
1461,83898926;-0,54785156
1461,84301758;-0,55107415
1461,84790039;-0,55107415
1461,85095215;-0,55349123
1461,85510254;-0,55429685
1461,85900879;-0,55590820
1461,86303711;-0,55751956
1461,86706543;-0,56074214
1461,87109375;-0,56315911
1461,87500000;-0,56396484
1461,87902832;-0,56396484
1461,88293457;-0,56557620
1461,88696289;-0,56718743
1461,89099121;-0,57041013
1461,89501953;-0,57202148
1461,89892578;-0,57363284
1461,91040039;-0,57524407
1461,91040039;-0,57524407
1461,91101074;-0,57524407
1461,91503906;-0,57524407
1461,91931152;-0,57685542
1461,92321777;-0,57766116
1461,92712402;-0,57846677
1461,93164063;-0,58007813
1461,93554688;-0,57927239
1461,93896484;-0,58007813
1461,94299316;-0,58168948
1461,94714355;-0,58168948
1461,95104980;-0,58330071
1461,95507813;-0,58410645
1461,95898438;-0,58652341
1461,96289063;-0,58813477
1461,96728516;-0,58813477
1461,97119141;-0,59135735
1461,97521973;-0,59135735
1461,97912598;-0,59458005
1461,98303223;-0,59538567
1461,98742676;-0,59780276
1461,99121094;-0,59941399
1461,99511719;-0,60021973
1461,99902344;-0,60102534
1462,00305176;-0,60183108
1462,00708008;-0,60183108
1462,01098633;-0,60263669
1462,01501465;-0,60424805
1462,01904297;-0,60263669
1462,02294922;-0,60263669
1462,02685547;-0,60021973
1462,03112793;-0,59780276
1462,03503418;-0,59619141
1462,03894043;-0,59377444
1462,04431152;-0,58974612
1462,04711914;-0,58571780
1462,05102539;-0,58168948
1462,05493164;-0,57927239
1462,05908203;-0,57604980
1462,06311035;-0,57202148
1462,06689453;-0,56718743
1462,07116699;-0,56235349
1462,07543945;-0,55993652
1462,07934570;-0,55671382
1462,08312988;-0,55268550
1462,08715820;-0,54946291
1462,09106445;-0,54624021
1462,09509277;-0,54382324
1462,09936523;-0,54060054
1462,10302734;-0,53898919
1462,10693359;-0,53737795
1462,11108398;-0,53576660
1462,11499023;-0,53496087
1462,11889648;-0,53334963
1462,12304688;-0,53334963
1462,12707520;-0,53173828
1462,13085938;-0,53173828
1462,13513184;-0,53012693
1462,13903809;-0,53012693
1462,14331055;-0,53012693
1462,14697266;-0,52932131
1462,15112305;-0,53012693
1462,15490723;-0,53012693
1462,15905762;-0,53093255
1462,16296387;-0,53012693
1462,16699219;-0,53012693
1462,17126465;-0,53093255
1462,17517090;-0,53173828
1462,17919922;-0,53254390
1462,18298340;-0,53496087
1462,18774414;-0,53496087
1462,19104004;-0,53657222
1462,19494629;-0,53979492
1462,19897461;-0,54221189
1462,20300293;-0,54301751
1462,20727539;-0,54462886
1462,21118164;-0,54624021
1462,21496582;-0,54865718
1462,21899414;-0,54946291
1462,22497559;-0,55026853
1462,22717285;-0,55107415
1462,23107910;-0,55349123
1462,23583984;-0,55510247
1462,23901367;-0,55751956
1462,24304199;-0,55913079
1462,24707031;-0,56074214
1462,25097656;-0,56074214
1462,25500488;-0,56235349
1462,25903320;-0,56235349
1462,26306152;-0,56557620
1462,26696777;-0,56718743
1462,27087402;-0,56718743
1462,27502441;-0,56879878
1462,27905273;-0,56960452
1462,28454590;-0,56960452
1462,28698730;-0,57041013
1462,29101563;-0,56960452
1462,29504395;-0,56960452
1462,29895020;-0,57041013
1462,30297852;-0,57041013
1462,30761719;-0,57363284
1462,31115723;-0,57443845
1462,31506348;-0,57604980
1462,31921387;-0,57685542
1462,32299805;-0,57927239
1462,32690430;-0,58007813
1462,33081055;-0,58168948
1462,33508301;-0,58330071
1462,33911133;-0,58652341
1462,34301758;-0,58652341
1462,34729004;-0,58732903
1462,35107422;-0,58813477
1462,35498047;-0,58974612
1462,35900879;-0,59296870
1462,36291504;-0,59377444
1462,36755371;-0,59458005
1462,37097168;-0,59458005
1462,37500000;-0,59619141
1462,37927246;-0,59619141
1462,38317871;-0,59619141
1462,38732910;-0,59860837
1462,39099121;-0,59780276
1462,39489746;-0,59860837
1462,39904785;-0,59941399
1462,40307617;-0,59941399
1462,40710449;-0,60102534
1462,41101074;-0,60021973
1462,41503906;-0,60183108
1462,41906738;-0,60263669
1462,42285156;-0,60263669
1462,42724609;-0,60424805
1462,43103027;-0,60263669
1462,43505859;-0,60424805
1462,43920898;-0,60585940
1462,44287109;-0,60747063
1462,44714355;-0,60747063
1462,45153809;-0,60747063
1462,45495605;-0,60908198
1462,45898438;-0,61069334
1462,46337891;-0,61149895
1462,46691895;-0,61069334
1462,47119141;-0,61069334
1462,47521973;-0,61149895
1462,47912598;-0,61230469
1462,48303223;-0,61230469
1462,48693848;-0,61391604
1462,49096680;-0,61552727
1462,49511719;-0,61230469
1462,49890137;-0,61633301
1462,50292969;-0,61633301
1462,50732422;-0,61794436
1462,51098633;-0,61794436
1462,51489258;-0,61874998
1462,51892090;-0,62036133
1462,52734375;-0,62036133
1462,52734375;-0,62116694
1462,53100586;-0,62277830
1462,53796387;-0,62519526
1462,53918457;-0,62438965
1462,54345703;-0,62519526
1462,54711914;-0,62519526
1462,55212402;-0,62519526
1462,55480957;-0,62680662
1462,55908203;-0,62841797
1462,56298828;-0,62841797
1462,56701660;-0,62922359
1462,57116699;-0,63244629
1462,57507324;-0,63486326
1462,57897949;-0,63486326
1462,58300781;-0,63647461
1462,58703613;-0,63728023
1462,59106445;-0,63647461
1462,59497070;-0,63728023
1462,59924316;-0,63808596
1462,60278320;-0,63647461
1462,60717773;-0,63486326
1462,61132813;-0,63164055
1462,61523438;-0,62922359
1462,61901855;-0,62519526
1462,62341309;-0,62358391
1462,62707520;-0,61874998
1462,63122559;-0,61472166
1462,63549805;-0,60908198
1462,63928223;-0,60747063
1462,64318848;-0,60263669
1462,64685059;-0,59941399
1462,65136719;-0,59538567
1462,65539551;-0,59135735
1462,65917969;-0,58732903
1462,66296387;-0,58410645
1462,66699219;-0,58330071
1462,67102051;-0,58168948
1462,67504883;-0,58007813
1462,67919922;-0,57766116
1462,68286133;-0,57685542
1462,68701172;-0,57604980
1462,69104004;-0,57524407
1462,69506836;-0,57363284
1462,69897461;-0,57443845
1462,70336914;-0,57363284
1462,70727539;-0,57363284
1462,71118164;-0,57282710
1462,71496582;-0,57202148
1462,71911621;-0,57202148
1462,72302246;-0,57041013
1462,72705078;-0,57041013
1462,73095703;-0,56718743
1462,73498535;-0,56638181
1462,73901367;-0,56557620
1462,74291992;-0,56718743
1462,74719238;-0,56396484
1462,75122070;-0,56557620
1462,75512695;-0,56557620
1462,75915527;-0,56557620
1462,76318359;-0,56557620
1462,76708984;-0,56396484
1462,77099609;-0,56396484
1462,77502441;-0,56396484
1462,77893066;-0,56557620
1462,78308105;-0,56718743
1462,78698730;-0,56879878
1462,79089355;-0,57041013
1462,79479980;-0,57202148
1462,79907227;-0,57363284
1462,80297852;-0,57524407
1462,80688477;-0,57604980
1462,81091309;-0,57766116
1462,81506348;-0,57927239
1462,81896973;-0,58168948
1462,82299805;-0,58168948
1462,83349609;-0,58249509
1462,83349609;-0,58330071
1462,83496094;-0,58330071
1462,83911133;-0,58491206
1462,84411621;-0,58410645
1462,84729004;-0,58571780
1462,85180664;-0,58813477
1462,85534668;-0,58732903
1462,85925293;-0,58813477
1462,86352539;-0,58894038
1462,86706543;-0,58894038
1462,87109375;-0,58974612
1462,87512207;-0,58894038
1462,87902832;-0,58894038
1462,88305664;-0,58813477
1462,88696289;-0,58652341
1462,89111328;-0,58652341
1462,89501953;-0,58652341
1462,89904785;-0,58813477
1462,90295410;-0,58732903
1462,90686035;-0,58974612
1462,91101074;-0,58974612
1462,91503906;-0,58974612
1462,91894531;-0,59216309
1462,92297363;-0,59458005
1462,92724609;-0,59458005
1462,93139648;-0,59860837
1462,93518066;-0,59699702
1462,93933105;-0,59619141
1462,94299316;-0,59699702
1462,94702148;-0,59780276
1462,95092773;-0,59941399
1462,95495605;-0,59941399
1462,95910645;-0,59941399
1462,96301270;-0,60102534
1462,96691895;-0,60021973
1462,97143555;-0,60102534
1462,97509766;-0,60263669
1462,97937012;-0,60263669
1462,98291016;-0,60424805
1462,98718262;-0,60505366
1462,99096680;-0,60666502
1462,99511719;-0,60585940
1462,99975586;-0,60827637
1463,00329590;-0,60908198
1463,00744629;-0,61069334
1463,01098633;-0,61069334
1463,01525879;-0,61149895
1463,01892090;-0,61311030
1463,02307129;-0,61472166
1463,02734375;-0,61552727
1463,03088379;-0,61552727
1463,03527832;-0,61713862
1463,03930664;-0,61874998
1463,04309082;-0,61794436
1463,04724121;-0,61874998
1463,05114746;-0,62116694
1463,05505371;-0,62116694
1463,05908203;-0,62438965
1463,06286621;-0,62438965
1463,06689453;-0,62438965
1463,07104492;-0,62358391
1463,07495117;-0,62438965
1463,07897949;-0,62519526
1463,08361816;-0,62761223
1463,08703613;-0,62680662
1463,09118652;-0,62761223
1463,09509277;-0,62841797
1463,09912109;-0,62841797
1463,10314941;-0,62922359
1463,10705566;-0,63083494
1463,11083984;-0,63164055
1463,11511230;-0,63083494
1463,11901855;-0,63164055
1463,12304688;-0,63083494
1463,12695313;-0,63164055
1463,13110352;-0,63325191
1463,13513184;-0,63325191
1463,13903809;-0,63486326
1463,14282227;-0,63566887
1463,14685059;-0,63647461
1463,15100098;-0,63808596
1463,15502930;-0,63889158
1463,15893555;-0,63969719
1463,16284180;-0,64050293
1463,16723633;-0,64050293
1463,17089844;-0,64130855
1463,17517090;-0,64130855
1463,17932129;-0,63969719
1463,18322754;-0,63889158
1463,18725586;-0,63486326
1463,19116211;-0,63164055
1463,19519043;-0,63002932
1463,19909668;-0,62680662
1463,20312500;-0,62197268
1463,20703125;-0,61713862
1463,21118164;-0,61230469
1463,21508789;-0,60666502
1463,21911621;-0,60263669
1463,22595215;-0,59780276
1463,22766113;-0,59619141
1463,23120117;-0,59296870
1463,23510742;-0,58974612
1463,23901367;-0,58652341
1463,24304199;-0,58410645
1463,24707031;-0,58168948
1463,25097656;-0,57927239
1463,25524902;-0,57685542
1463,25927734;-0,57604980
1463,26330566;-0,57604980
1463,26708984;-0,57685542
1463,27099609;-0,57604980
1463,27490234;-0,57363284
1463,27905273;-0,57202148
1463,28295898;-0,57041013
1463,28698730;-0,57041013
1463,29089355;-0,57041013
1463,29504395;-0,56960452
1463,29895020;-0,56960452
1463,30285645;-0,56960452
1463,30725098;-0,56718743
1463,31091309;-0,56638181
1463,31506348;-0,56638181
1463,31896973;-0,56557620
1463,32287598;-0,56638181
1463,32702637;-0,56638181
1463,33093262;-0,56638181
1463,33496094;-0,56557620
1463,33935547;-0,56557620
1463,34326172;-0,56557620
1463,34716797;-0,56638181
1463,35107422;-0,56638181
1463,35510254;-0,56799316
1463,35900879;-0,57041013
1463,36303711;-0,57121575
1463,36718750;-0,57202148
1463,37109375;-0,57363284
1463,37524414;-0,57524407
1463,37915039;-0,57846677
1463,38293457;-0,58007813
1463,38720703;-0,57927239
1463,39099121;-0,58088374
1463,39489746;-0,58330071
1463,39904785;-0,58491206
1463,40307617;-0,58652341
1463,40710449;-0,58652341
1463,41101074;-0,58652341
1463,41491699;-0,58652341
1463,41918945;-0,58813477
1463,42358398;-0,58813477
1463,42687988;-0,58732903
1463,43090820;-0,58813477
1463,43505859;-0,58813477
1463,43908691;-0,58732903
1463,44299316;-0,58813477
1463,44689941;-0,58894038
1463,45080566;-0,58974612
1463,45495605;-0,58974612
1463,45898438;-0,59135735
1463,46484375;-0,59135735
1463,46679688;-0,58974612
1463,47204590;-0,58974612
1463,47509766;-0,58974612
1463,48022461;-0,59135735
1463,48315430;-0,59216309
1463,48718262;-0,59216309
1463,49206543;-0,59296870
1463,49548340;-0,59377444
1463,49902344;-0,59377444
1463,50305176;-0,59458005
1463,50720215;-0,59619141
1463,51098633;-0,59619141
1463,51513672;-0,59860837
1463,51904297;-0,59860837
1463,52294922;-0,59941399
1463,52697754;-0,59860837
1463,53100586;-0,59941399
1463,53503418;-0,60183108
1463,53894043;-0,60263669
1463,54394531;-0,60424805
1463,54772949;-0,60585940
1463,55114746;-0,60505366
1463,55554199;-0,60747063
1463,55944824;-0,60747063
1463,56311035;-0,60908198
1463,56701660;-0,61069334
1463,57092285;-0,61069334
1463,57543945;-0,61391604
1463,57922363;-0,61391604
1463,58300781;-0,61391604
1463,58703613;-0,61391604
1463,59094238;-0,61472166
1463,59509277;-0,61472166
1463,59899902;-0,61552727
1463,60754395;-0,61552727
1463,60754395;-0,61472166
1463,61291504;-0,61552727
1463,61511230;-0,61552727
1463,61914063;-0,61633301
1463,62316895;-0,61552727
1463,62731934;-0,61713862
1463,63098145;-0,61713862
1463,63525391;-0,61552727
1463,63952637;-0,61633301
1463,64306641;-0,61552727
1463,64709473;-0,61713862
1463,65100098;-0,61794436
1463,65490723;-0,61874998
1463,65905762;-0,62197268
1463,66296387;-0,62197268
1463,66711426;-0,62197268
1463,67102051;-0,62438965
1463,67504883;-0,62358391
1463,67895508;-0,62600100
1463,68298340;-0,62600100
1463,68688965;-0,62438965
1463,69104004;-0,62519526
1463,69506836;-0,62680662
1463,69885254;-0,63002932
1463,70288086;-0,63002932
1463,70727539;-0,63164055
1463,71093750;-0,63164055
1463,71496582;-0,63405764
1463,71887207;-0,63647461
1463,72314453;-0,63808596
1463,72705078;-0,63808596
1463,73107910;-0,63728023
1463,73522949;-0,63728023
1463,73925781;-0,63808596
1463,74316406;-0,63969719
1463,74694824;-0,63808596
1463,75097656;-0,63647461
1463,75500488;-0,63486326
1463,75903320;-0,63325191
1463,76281738;-0,63083494
1463,77331543;-0,62761223
1463,77331543;-0,62358391
1463,77502441;-0,62036133
1463,77905273;-0,61874998
1463,78295898;-0,61552727
1463,78820801;-0,61149895
1463,79101563;-0,60585940
1463,79516602;-0,60102534
1463,79919434;-0,59619141
1463,80297852;-0,59055173
1463,80712891;-0,58813477
1463,81103516;-0,58652341
1463,81494141;-0,58330071
1463,81896973;-0,58007813
1463,82299805;-0,57846677
1463,82690430;-0,57685542
1463,83093262;-0,57524407
1463,83508301;-0,57604980
1463,83898926;-0,57524407
1463,84545898;-0,57202148
1463,84716797;-0,57041013
1463,85095215;-0,57041013
1463,85534668;-0,57041013
1463,85888672;-0,57041013
1463,86303711;-0,56879878
1463,86706543;-0,56879878
1463,87121582;-0,56718743
1463,87512207;-0,56879878
1463,87902832;-0,56638181
1463,88305664;-0,56718743
1463,88696289;-0,56557620
1463,89099121;-0,56396484
1463,89477539;-0,56315911
1463,89904785;-0,56396484
1463,90295410;-0,56235349
1463,90942383;-0,56235349
1463,91113281;-0,56235349
1463,91491699;-0,56396484
1463,91906738;-0,56396484
1463,92297363;-0,56396484
1463,92687988;-0,56557620
1463,93115234;-0,56638181
1463,93493652;-0,56718743
1463,93908691;-0,56879878
1463,94335938;-0,56960452
1463,94726563;-0,57202148
1463,95117188;-0,57282710
1463,95495605;-0,57604980
1463,95910645;-0,57685542
1463,96325684;-0,57685542
1463,96704102;-0,57766116
1463,97094727;-0,58007813
1463,97509766;-0,58007813
1463,97900391;-0,58168948
1463,98303223;-0,58249509
1463,98693848;-0,58330071
1463,99096680;-0,58571780
1463,99499512;-0,58652341
1463,99890137;-0,58813477
1464,00292969;-0,58974612
1464,00708008;-0,58974612
1464,01098633;-0,58813477
1464,01501465;-0,58813477
1464,01892090;-0,58652341
1464,02307129;-0,58813477
1464,02697754;-0,58813477
1464,03149414;-0,59135735
1464,03527832;-0,59296870
1464,03894043;-0,59458005
1464,04309082;-0,59458005
1464,04687500;-0,59458005
1464,05102539;-0,59538567
1464,05493164;-0,59538567
1464,05908203;-0,59619141
1464,06298828;-0,59619141
1464,06713867;-0,59860837
1464,07092285;-0,60021973
1464,07495117;-0,59941399
1464,07897949;-0,60021973
1464,08288574;-0,60183108
1464,08703613;-0,60263669
1464,09106445;-0,60505366
1464,09509277;-0,60505366
1464,10205078;-0,60666502
1464,10314941;-0,60747063
1464,10717773;-0,60747063
1464,11169434;-0,60827637
1464,11511230;-0,60988772
1464,11901855;-0,61069334
1464,12304688;-0,61069334
1464,12719727;-0,61069334
1464,13098145;-0,60908198
1464,13500977;-0,61069334
1464,13903809;-0,61230469
1464,14306641;-0,61230469
1464,14733887;-0,61230469
1464,15087891;-0,61472166
1464,15502930;-0,61552727
1464,15917969;-0,61794436
1464,16320801;-0,61794436
1464,16711426;-0,61713862
1464,17089844;-0,61794436
1464,17565918;-0,61794436
1464,17919922;-0,61874998
1464,18334961;-0,61874998
1464,18798828;-0,62116694
1464,19165039;-0,62036133
1464,19506836;-0,62116694
1464,19897461;-0,62197268
1464,20300293;-0,62197268
1464,20776367;-0,62197268
1464,21093750;-0,62358391
1464,21557617;-0,62438965
1464,21899414;-0,62519526
1464,22351074;-0,62519526
1464,22717285;-0,62519526
1464,23107910;-0,62519526
1464,23510742;-0,62600100
1464,23937988;-0,62680662
1464,24304199;-0,62680662
1464,24682617;-0,62841797
1464,25122070;-0,63002932
1464,25549316;-0,63002932
1464,25927734;-0,63083494
1464,26306152;-0,63002932
1464,26721191;-0,62841797
1464,27124023;-0,63002932
1464,27514648;-0,62841797
1464,27905273;-0,63164055
1464,28320313;-0,63164055
1464,28894043;-0,63325191
1464,29089355;-0,63486326
1464,29492188;-0,63486326
1464,29907227;-0,63647461
1464,30285645;-0,63486326
1464,30688477;-0,63486326
1464,31115723;-0,63647461
1464,31506348;-0,63647461
1464,31970215;-0,63728023
1464,32287598;-0,63728023
1464,32702637;-0,63728023
1464,33105469;-0,63486326
1464,33496094;-0,63325191
1464,33898926;-0,63083494
1464,34509277;-0,62680662
1464,34741211;-0,62519526
1464,35095215;-0,62036133
1464,35522461;-0,61552727
1464,35913086;-0,61391604
1464,36303711;-0,60827637
1464,36718750;-0,60424805
1464,37097168;-0,59941399
1464,37487793;-0,59458005
1464,37902832;-0,59135735
1464,38293457;-0,58652341
1464,38708496;-0,58249509
1464,39099121;-0,57927239
1464,39489746;-0,57685542
1464,39904785;-0,57604980
1464,40319824;-0,57363284
1464,40734863;-0,57282710
1464,41113281;-0,57041013
1464,41760254;-0,56718743
1464,42028809;-0,56718743
1464,42297363;-0,56477046
1464,42712402;-0,56396484
1464,43127441;-0,56235349
1464,43530273;-0,56235349
1464,43908691;-0,55993652
1464,44311523;-0,56074214
1464,44714355;-0,55832517
1464,45092773;-0,55671382
1464,45495605;-0,55671382
1464,45898438;-0,55671382
1464,46313477;-0,55671382
1464,46716309;-0,55590820
1464,47094727;-0,55429685
1464,47497559;-0,55429685
1464,48205566;-0,55429685
1464,48291016;-0,55429685
1464,48693848;-0,55268550
1464,49108887;-0,55349123
1464,49511719;-0,55349123
1464,49902344;-0,55429685
1464,50280762;-0,55590820
1464,50744629;-0,55751956
1464,51098633;-0,55993652
1464,51501465;-0,56074214
1464,51892090;-0,56235349
1464,52307129;-0,56477046
1464,52709961;-0,56638181
1464,53088379;-0,56718743
1464,53491211;-0,56879878
1464,53906250;-0,56879878
1464,54296875;-0,57041013
1464,54687500;-0,57202148
1464,55090332;-0,57363284
1464,55505371;-0,57363284
1464,55895996;-0,57524407
1464,56298828;-0,57363284
1464,56750488;-0,57685542
1464,57104492;-0,57524407
1464,57507324;-0,57524407
1464,57897949;-0,57604980
1464,58288574;-0,57766116
1464,58715820;-0,57927239
1464,59130859;-0,58007813
1464,59497070;-0,58168948
1464,59899902;-0,58007813
1464,60302734;-0,58249509
1464,60693359;-0,58007813
1464,61096191;-0,58168948
1464,61486816;-0,58168948
1464,61901855;-0,58088374
1464,62292480;-0,58007813
1464,62951660;-0,58168948
1464,63122559;-0,58330071
1464,63500977;-0,58330071
1464,63903809;-0,58571780
1464,64306641;-0,58571780
1464,64697266;-0,58732903
1464,65173340;-0,58652341
1464,65490723;-0,58652341
1464,65905762;-0,58813477
1464,66296387;-0,58894038
1464,66699219;-0,58974612
1464,67102051;-0,59135735
1464,67492676;-0,59216309
1464,67907715;-0,59377444
1464,68310547;-0,59458005
1464,68713379;-0,59619141
1464,69091797;-0,59619141
1464,69494629;-0,59860837
1464,69897461;-0,59941399
1464,71203613;-0,59941399
1464,71203613;-0,60183108
1464,71203613;-0,60183108
1464,71508789;-0,60344231
1464,72009277;-0,60424805
1464,72314453;-0,60424805
1464,72705078;-0,60585940
1464,73156738;-0,60505366
1464,73522949;-0,60747063
1464,73901367;-0,60747063
1464,74304199;-0,60747063
1464,74719238;-0,60988772
1464,75097656;-0,61069334
1464,75500488;-0,61149895
1464,75891113;-0,61149895
1464,76293945;-0,61230469
1464,76782227;-0,61230469
1464,77099609;-0,61311030
1464,77490234;-0,61391604
1464,77893066;-0,61391604
1464,78417969;-0,61391604
1464,78686523;-0,61713862
1464,79101563;-0,61874998
1464,79516602;-0,61874998
1464,79968262;-0,61874998
1464,80334473;-0,62036133
1464,80737305;-0,62036133
1464,81176758;-0,62197268
1464,81518555;-0,62358391
1464,81896973;-0,62358391
1464,82299805;-0,62358391
1464,82714844;-0,62197268
1464,83093262;-0,62197268
1464,83496094;-0,62277830
1464,83886719;-0,62197268
1464,84301758;-0,62519526
1464,84741211;-0,62600100
1464,85083008;-0,62761223
1464,85498047;-0,62841797
1464,85900879;-0,62841797
1464,86291504;-0,62841797
1464,86682129;-0,63002932
1464,87097168;-0,63083494
1464,87512207;-0,63164055
1464,87915039;-0,63325191
1464,88305664;-0,63325191
1464,88732910;-0,63164055
1464,89111328;-0,63164055
1464,89526367;-0,63325191
1464,89892578;-0,63325191
1464,90295410;-0,63164055
1464,90698242;-0,63164055
1464,91101074;-0,63083494
1464,91491699;-0,62841797
1464,91894531;-0,62680662
1464,92309570;-0,62438965
1464,92687988;-0,62036133
1464,93103027;-0,61713862
1464,93493652;-0,61391604
1464,93908691;-0,60827637
1464,94287109;-0,60424805
1464,95422363;-0,59941399
1464,95422363;-0,59538567
1464,95483398;-0,59055173
1464,95886230;-0,58813477
1464,96301270;-0,58491206
1464,96691895;-0,58007813
1464,97143555;-0,57846677
1464,97497559;-0,57524407
1464,97924805;-0,57363284
1464,98303223;-0,56960452
1464,98730469;-0,56718743
1464,99182129;-0,56396484
1464,99511719;-0,56315911
1464,99902344;-0,56235349
1465,00305176;-0,56074214
1465,00695801;-0,56154788
1465,01098633;-0,55913079
1465,01489258;-0,55751956
1465,01904297;-0,55671382
1465,02294922;-0,55590820
1465,02685547;-0,55429685
1465,03076172;-0,55429685
1465,03491211;-0,55268550
1465,04040527;-0,55187988
1465,04296875;-0,55187988
1465,04772949;-0,55187988
1465,05285645;-0,55107415
1465,05554199;-0,54946291
1465,05908203;-0,54785156
1465,06335449;-0,54946291
1465,06701660;-0,54785156
1465,07104492;-0,54704583
1465,07495117;-0,54704583
1465,07897949;-0,54624021
1465,08300781;-0,54785156
1465,08691406;-0,54785156
1465,09094238;-0,54946291
1465,09484863;-0,55187988
1465,09899902;-0,55349123
1465,10314941;-0,55429685
1465,10729980;-0,55590820
1465,11120605;-0,55751956
1465,11499023;-0,55751956
1465,11914063;-0,56074214
1465,12329102;-0,56235349
1465,12744141;-0,56315911
1465,13110352;-0,56396484
1465,13537598;-0,56477046
1465,13916016;-0,56638181
1465,14331055;-0,56799316
1465,14709473;-0,56960452
1465,15136719;-0,57282710
1465,15502930;-0,57363284
1465,15893555;-0,57282710
1465,16308594;-0,57363284
1465,16699219;-0,57282710
1465,17089844;-0,57363284
1465,17553711;-0,57524407
1465,17932129;-0,57685542
1465,18371582;-0,57685542
1465,18737793;-0,57685542
1465,19140625;-0,57846677
1465,19543457;-0,57846677
1465,19958496;-0,57927239
1465,20324707;-0,58007813
1465,20727539;-0,58007813
1465,21118164;-0,58168948
1465,21533203;-0,58249509
1465,21923828;-0,58249509
1465,22326660;-0,58330071
1465,22741699;-0,58491206
1465,23095703;-0,58491206
1465,23510742;-0,58571780
1465,23913574;-0,58813477
1465,24304199;-0,58813477
1465,24694824;-0,58813477
1465,25097656;-0,58813477
1465,25488281;-0,58894038
1465,25915527;-0,58732903
1465,26293945;-0,58974612
1465,26696777;-0,59135735
1465,27087402;-0,59458005
1465,27514648;-0,59538567
1465,27905273;-0,59458005
1465,28381348;-0,59619141
1465,28710938;-0,59619141
1465,29113770;-0,59860837
1465,29504395;-0,59941399
1465,29895020;-0,60021973
1465,30310059;-0,60021973
1465,30700684;-0,60021973
1465,31091309;-0,59941399
1465,31494141;-0,59941399
1465,31909180;-0,60102534
1465,32299805;-0,60183108
1465,32690430;-0,60424805
1465,33093262;-0,60585940
1465,33496094;-0,60747063
1465,33898926;-0,60908198
1465,34301758;-0,60908198
1465,34729004;-0,60908198
1465,35156250;-0,60908198
1465,35510254;-0,60908198
1465,35913086;-0,61069334
1465,36315918;-0,61069334
1465,36682129;-0,61149895
1465,37109375;-0,61069334
1465,37500000;-0,61230469
1465,37890625;-0,61311030
1465,38293457;-0,61149895
1465,38720703;-0,61149895
1465,39099121;-0,61391604
1465,39477539;-0,61472166
1465,39892578;-0,61472166
1465,40295410;-0,61552727
1465,41723633;-0,61713862
1465,41723633;-0,61794436
1465,41723633;-0,61794436
1465,41894531;-0,62036133
1465,42321777;-0,62116694
1465,42712402;-0,62197268
1465,43127441;-0,62519526
1465,43518066;-0,62519526
1465,43920898;-0,62680662
1465,44287109;-0,62761223
1465,44726563;-0,62841797
1465,45104980;-0,62841797
1465,45495605;-0,63002932
1465,45898438;-0,63164055
1465,46289063;-0,63325191
1465,46716309;-0,63405764
1465,47094727;-0,63486326
1465,47485352;-0,63728023
1465,47912598;-0,63808596
1465,48303223;-0,63808596
1465,48693848;-0,63969719
1465,49084473;-0,63808596
1465,49487305;-0,63889158
1465,49890137;-0,63808596
1465,50292969;-0,63647461
1465,50683594;-0,63405764
1465,51086426;-0,63083494
1465,51501465;-0,62761223
1465,51916504;-0,62358391
1465,52282715;-0,61874998
1465,52685547;-0,61391604
1465,53100586;-0,60908198
1465,53503418;-0,60263669
1465,53894043;-0,60102534
1465,54309082;-0,59458005
1465,54736328;-0,59135735
1465,55102539;-0,58894038
1465,55493164;-0,58491206
1465,55908203;-0,58007813
1465,56298828;-0,57685542
1465,56689453;-0,57363284
1465,57092285;-0,57121575
1465,57507324;-0,56718743
1465,57910156;-0,56638181
1465,58312988;-0,56396484
1465,58691406;-0,56235349
1465,59106445;-0,55993652
1465,59497070;-0,55913079
1465,59899902;-0,55993652
1465,60302734;-0,55751956
1465,60729980;-0,55671382
1465,61108398;-0,55671382
1465,61499023;-0,55671382
1465,61914063;-0,55429685
1465,62304688;-0,55268550
1465,62719727;-0,55107415
1465,63098145;-0,55107415
1465,63500977;-0,55026853
1465,63903809;-0,54946291
1465,64306641;-0,54946291
1465,64697266;-0,54946291
1465,65100098;-0,54785156
1465,65502930;-0,54624021
1465,66320801;-0,54704583
1465,66320801;-0,54785156
1465,66723633;-0,54785156
1465,67089844;-0,54785156
1465,67529297;-0,54785156
1465,67919922;-0,54946291
1465,68322754;-0,55107415
1465,68725586;-0,55429685
1465,69104004;-0,55590820
1465,69494629;-0,55671382
1465,69897461;-0,55832517
1465,70288086;-0,55993652
1465,70690918;-0,56235349
1465,71093750;-0,56396484
1465,71496582;-0,56557620
1465,71887207;-0,56557620
1465,72302246;-0,56718743
1465,72692871;-0,56879878
1465,73095703;-0,56960452
1465,73510742;-0,57041013
1465,73901367;-0,57041013
1465,74340820;-0,57041013
1465,74694824;-0,57202148
1465,75109863;-0,57443845
1465,75524902;-0,57363284
1465,75903320;-0,57443845
1465,76293945;-0,57685542
1465,76708984;-0,57846677
1465,77099609;-0,57846677
1465,77502441;-0,58007813
1465,77893066;-0,58088374
1465,78308105;-0,58007813
1465,78710938;-0,58168948
1465,79101563;-0,58168948
1465,79492188;-0,58088374
1465,79907227;-0,58088374
1465,80310059;-0,58249509
1465,80700684;-0,58330071
1465,81091309;-0,58330071
1465,81481934;-0,58410645
1465,81909180;-0,58491206
1465,82299805;-0,58813477
1465,82690430;-0,58974612
1465,83105469;-0,59135735
1465,83508301;-0,59135735
1465,83886719;-0,59216309
1465,84289551;-0,59216309
1465,84704590;-0,59296870
1465,85107422;-0,59135735
1465,85498047;-0,59296870
1465,85900879;-0,59377444
1465,86303711;-0,59296870
1465,86682129;-0,59296870
1465,87097168;-0,59458005
1465,87487793;-0,59538567
1465,87902832;-0,59619141
1465,88305664;-0,59458005
1465,88732910;-0,59458005
1465,89111328;-0,59619141
1465,89514160;-0,59619141
1465,89904785;-0,59780276
1465,90295410;-0,59860837
1465,90710449;-0,60102534
1465,91113281;-0,60263669
1465,91528320;-0,60424805
1465,91894531;-0,60585940
1465,92297363;-0,60666502
1465,92700195;-0,60827637
1465,93103027;-0,60908198
1465,93493652;-0,60908198
1465,93896484;-0,60908198
1465,94311523;-0,60908198
1465,94702148;-0,60908198
1465,95092773;-0,61069334
1465,95495605;-0,61230469
1465,95898438;-0,61472166
1465,96289063;-0,61472166
1465,96716309;-0,61472166
1465,97106934;-0,61552727
1465,97509766;-0,61552727
1465,97924805;-0,61552727
1465,98352051;-0,61552727
1465,98742676;-0,61633301
1465,99121094;-0,61552727
1465,99523926;-0,61713862
1465,99914551;-0,61633301
1466,00292969;-0,61713862
1466,00720215;-0,61874998
1466,01098633;-0,62036133
1466,01501465;-0,62116694
1466,01904297;-0,62116694
1466,02307129;-0,62036133
1466,02697754;-0,62197268
1466,03100586;-0,62277830
1466,03662109;-0,62197268
1466,03906250;-0,62197268
1466,04309082;-0,62197268
1466,04711914;-0,62358391
1466,05114746;-0,62761223
1466,05517578;-0,62841797
1466,05908203;-0,63002932
1466,06335449;-0,63325191
1466,06726074;-0,63244629
1466,07116699;-0,63164055
1466,07495117;-0,63164055
1466,07922363;-0,63164055
1466,08300781;-0,63164055
1466,08715820;-0,63083494
1466,09094238;-0,63002932
1466,09497070;-0,62841797
1466,09887695;-0,62519526
1466,10314941;-0,62116694
1466,10693359;-0,61794436
1466,11096191;-0,61552727
1466,11486816;-0,61149895
1466,11901855;-0,60747063
1466,12304688;-0,60102534
1466,12695313;-0,59619141
1466,13098145;-0,58974612
1466,13525391;-0,58491206
1466,13964844;-0,58168948
1466,14306641;-0,57604980
1466,14721680;-0,57202148
1466,15100098;-0,56879878
1466,15490723;-0,56638181
1466,15917969;-0,56396484
1466,16308594;-0,56235349
1466,16711426;-0,56074214
1466,17102051;-0,56074214
1466,17504883;-0,55913079
1466,17895508;-0,55671382
1466,18310547;-0,55429685
1466,18713379;-0,55429685
1466,19091797;-0,55107415
1466,19506836;-0,55268550
1466,19934082;-0,55107415
1466,20312500;-0,55268550
1466,20739746;-0,55026853
1466,21118164;-0,54946291
1466,21545410;-0,54785156
1466,21911621;-0,54704583
1466,22363281;-0,54624021
1466,22680664;-0,54462886
1466,23132324;-0,54462886
1466,23535156;-0,54462886
1466,23901367;-0,54301751
1466,24304199;-0,54301751
1466,24719238;-0,54301751
1466,25109863;-0,54462886
1466,25500488;-0,54462886
1466,25903320;-0,54624021
1466,26306152;-0,54624021
1466,26708984;-0,54785156
1466,27148438;-0,54785156
1466,27490234;-0,54785156
1466,27893066;-0,55026853
1466,28295898;-0,55107415
1466,28881836;-0,55349123
1466,29113770;-0,55429685
1466,29504395;-0,55751956
1466,29943848;-0,55913079
1466,30346680;-0,56074214
1466,30700684;-0,56235349
1466,31103516;-0,56396484
1466,31506348;-0,56638181
1466,31884766;-0,56638181
1466,32287598;-0,56718743
1466,32727051;-0,56960452
1466,33105469;-0,56960452
1466,33496094;-0,57202148
1466,33886719;-0,57202148
1466,34301758;-0,57282710
1466,34716797;-0,57363284
1466,35253906;-0,57363284
1466,35498047;-0,57363284
1466,35961914;-0,57363284
1466,36303711;-0,57524407
1466,36718750;-0,57685542
1466,37097168;-0,57927239
1466,37524414;-0,57927239
1466,37915039;-0,57927239
1466,38330078;-0,58007813
1466,38769531;-0,58007813
1466,39111328;-0,58168948
1466,39514160;-0,58330071
1466,39892578;-0,58330071
1466,40295410;-0,58330071
1466,40722656;-0,58491206
1466,41101074;-0,58410645
1466,41650391;-0,58571780
1466,41882324;-0,58813477
1466,42309570;-0,58974612
1466,42687988;-0,59216309
1466,43090820;-0,59296870
1466,43481445;-0,59377444
1466,43908691;-0,59619141
1466,44348145;-0,59619141
1466,44726563;-0,59780276
1466,45251465;-0,59780276
1466,45544434;-0,59860837
1466,45922852;-0,59941399
1466,46301270;-0,59941399
1466,46704102;-0,60102534
1466,47094727;-0,60183108
1466,47521973;-0,60263669
1466,47912598;-0,60263669
1466,48315430;-0,60424805
1466,48718262;-0,60505366
1466,49121094;-0,60585940
1466,49499512;-0,60585940
1466,49902344;-0,60585940
1466,50305176;-0,60585940
1466,50720215;-0,60585940
1466,51989746;-0,60666502
1466,51989746;-0,60585940
1466,51989746;-0,60585940
1466,52294922;-0,60747063
1466,52697754;-0,60908198
1466,53100586;-0,60908198
1466,53674316;-0,60908198
1466,53942871;-0,60988772
1466,54333496;-0,61069334
1466,54687500;-0,61230469
1466,55126953;-0,61230469
1466,55517578;-0,61230469
1466,55895996;-0,61230469
1466,56286621;-0,61230469
1466,56713867;-0,61391604
1466,57104492;-0,61391604
1466,57482910;-0,61552727
1466,57897949;-0,61552727
1466,58325195;-0,61713862
1466,58703613;-0,61713862
1466,59094238;-0,61794436
1466,59582520;-0,61874998
1466,59912109;-0,62116694
1466,60302734;-0,62197268
1466,60693359;-0,62116694
1466,61157227;-0,62116694
1466,61511230;-0,62116694
1466,61901855;-0,62036133
1466,62316895;-0,62197268
1466,62707520;-0,62197268
1466,63098145;-0,62358391
1466,63500977;-0,62519526
1466,63903809;-0,62680662
1466,64294434;-0,62841797
1466,64721680;-0,63002932
1466,65100098;-0,63164055
1466,65588379;-0,63164055
1466,65881348;-0,63164055
1466,66296387;-0,63244629
1466,66723633;-0,63325191
1466,67114258;-0,63566887
1466,67504883;-0,63647461
1466,67932129;-0,63647461
1466,68310547;-0,63647461
1466,68737793;-0,63647461
1466,69140625;-0,63486326
1466,69506836;-0,63164055
1466,69897461;-0,62841797
1466,70300293;-0,62600100
1466,70690918;-0,62197268
1466,71105957;-0,61713862
1466,71496582;-0,61230469
1466,71911621;-0,60747063
1466,72290039;-0,60102534
1466,72766113;-0,59377444
1466,73107910;-0,58974612
1466,73510742;-0,58652341
1466,73889160;-0,58168948
1466,74304199;-0,57685542
1466,74719238;-0,57121575
1466,75097656;-0,56718743
1466,75561523;-0,56315911
1466,75927734;-0,55913079
1466,76330566;-0,55671382
1466,76708984;-0,55429685
1466,77099609;-0,55268550
1466,77502441;-0,55107415
1466,77905273;-0,54785156
1466,78283691;-0,54543459
1466,78735352;-0,54462886
1466,79113770;-0,54140627
1466,79504395;-0,54060054
1466,79895020;-0,53979492
1466,80297852;-0,54060054
1466,80700684;-0,53979492
1466,81091309;-0,54060054
1466,81481934;-0,53979492
1466,81884766;-0,53818357
1466,82299805;-0,53657222
1466,82714844;-0,53496087
1466,83178711;-0,53496087
1466,83496094;-0,53334963
1466,83911133;-0,53334963
1466,84301758;-0,53173828
1466,84704590;-0,53093255
1466,85107422;-0,52932131
1466,85510254;-0,52851558
1466,85925293;-0,53012693
1466,86291504;-0,52932131
1466,86706543;-0,53173828
1466,87109375;-0,53173828
1466,87512207;-0,53415525
1466,87890625;-0,53657222
1466,88293457;-0,53657222
1466,88720703;-0,53737795
1466,89099121;-0,54060054
1466,89489746;-0,54221189
1466,89880371;-0,54462886
1466,90295410;-0,54785156
1466,90710449;-0,54946291
1466,91467285;-0,55268550
1466,91528320;-0,55349123
1466,92004395;-0,55751956
1466,92333984;-0,55993652
1466,92724609;-0,56235349
1466,93103027;-0,56315911
1466,93505859;-0,56315911
1466,93884277;-0,56396484
1466,94299316;-0,56477046
1466,94702148;-0,56557620
1466,95104980;-0,56396484
1466,95495605;-0,56557620
1466,95898438;-0,56718743
1466,96289063;-0,56638181
1466,96716309;-0,56718743
1466,97094727;-0,56879878
1466,97509766;-0,56799316
1466,97900391;-0,56879878
1466,98303223;-0,57041013
1466,98718262;-0,57363284
1466,99108887;-0,57363284
1466,99548340;-0,57685542
1466,99938965;-0,57685542
1467,00366211;-0,57685542
1467,00732422;-0,57927239
1467,01098633;-0,57927239
1467,01501465;-0,57927239
1467,01892090;-0,57846677
1467,02294922;-0,57846677
1467,02734375;-0,58007813
1467,03100586;-0,58007813
1467,03503418;-0,58007813
1467,03894043;-0,58168948
1467,04296875;-0,58168948
1467,04736328;-0,58330071
1467,05102539;-0,58491206
1467,05505371;-0,58571780
1467,05883789;-0,58652341
1467,06298828;-0,58652341
1467,06713867;-0,58813477
1467,07104492;-0,58974612
1467,07495117;-0,58974612
1467,07922363;-0,58974612
1467,08325195;-0,59216309
1467,08703613;-0,59296870
1467,09130859;-0,59377444
1467,09497070;-0,59296870
1467,09912109;-0,59216309
1467,10339355;-0,59296870
1467,10693359;-0,59377444
1467,11108398;-0,59538567
1467,11511230;-0,59538567
1467,11901855;-0,59619141
1467,12304688;-0,59780276
1467,12695313;-0,59780276
1467,13110352;-0,59780276
1467,13488770;-0,59619141
1467,13928223;-0,59780276
1467,14306641;-0,59941399
1467,14697266;-0,60102534
1467,15100098;-0,60183108
1467,15600586;-0,60263669
1467,15966797;-0,60424805
1467,16418457;-0,60424805
1467,16711426;-0,60263669
1467,17126465;-0,60424805
1467,17504883;-0,60344231
1467,17907715;-0,60585940
1467,18298340;-0,60585940
1467,18701172;-0,60747063
1467,19116211;-0,60827637
1467,19494629;-0,61069334
1467,19897461;-0,61069334
1467,20288086;-0,61230469
1467,20703125;-0,61230469
1467,21093750;-0,61149895
1467,21508789;-0,61149895
1467,21936035;-0,61472166
1467,22363281;-0,61552727
1467,22766113;-0,61552727
1467,23095703;-0,61713862
1467,23522949;-0,61794436
1467,23901367;-0,61874998
1467,24328613;-0,61874998
1467,24694824;-0,61874998
1467,25097656;-0,62116694
1467,25500488;-0,62197268
1467,25903320;-0,62519526
1467,26293945;-0,62519526
1467,26721191;-0,62519526
1467,27111816;-0,62680662
1467,27502441;-0,62841797
1467,27893066;-0,63002932
1467,28320313;-0,63083494
1467,28735352;-0,63083494
1467,29113770;-0,63325191
1467,29528809;-0,63325191
1467,29931641;-0,63486326
1467,30297852;-0,63325191
1467,30712891;-0,63325191
1467,31127930;-0,63164055
1467,31494141;-0,63325191
1467,31921387;-0,62841797
1467,32287598;-0,62519526
1467,32690430;-0,62116694
1467,33081055;-0,61713862
1467,33496094;-0,61230469
1467,33898926;-0,60585940
1467,34289551;-0,59941399
1467,34716797;-0,59216309
1467,35107422;-0,58491206
1467,35498047;-0,57846677
1467,35937500;-0,57363284
1467,36315918;-0,56718743
1467,36706543;-0,56235349
1467,37097168;-0,55751956
1467,37500000;-0,55349123
1467,37890625;-0,54946291
1467,38305664;-0,54624021
1467,38781738;-0,54301751
1467,39086914;-0,54060054
1467,39501953;-0,53818357
1467,39904785;-0,53496087
1467,40307617;-0,53415525
1467,40722656;-0,53173828
1467,41088867;-0,52851558
1467,41503906;-0,52770996
1467,41906738;-0,52368164
1467,42309570;-0,52207029
1467,42687988;-0,52045894
1467,43103027;-0,51884758
1467,43493652;-0,51804197
1467,43896484;-0,51562500
1467,44287109;-0,51401365
1467,44702148;-0,51240230
1467,45092773;-0,50998533
1467,45495605;-0,50917971
1467,45898438;-0,50756836
1467,46301270;-0,50595701
1467,46704102;-0,50595701
1467,47106934;-0,50595701
1467,47497559;-0,50515139
1467,47888184;-0,50515139
1467,48303223;-0,50515139
1467,48718262;-0,50273430
1467,49121094;-0,50273430
1467,49511719;-0,50273430
1467,49902344;-0,50595701
1467,50292969;-0,50917971
1467,50695801;-0,51159668
1467,51098633;-0,51240230
1467,51501465;-0,51481926
1467,51879883;-0,51562500
1467,52294922;-0,51723635
1467,52697754;-0,51884758
1467,53100586;-0,52045894
1467,53710938;-0,52287591
1467,53967285;-0,52690423
1467,54321289;-0,52851558
1467,54724121;-0,53012693
1467,55102539;-0,53173828
1467,55541992;-0,53334963
1467,55895996;-0,53657222
1467,56298828;-0,53818357
1467,56713867;-0,53818357
1467,57092285;-0,53818357
1467,57495117;-0,53818357
1467,57897949;-0,54060054
1467,58288574;-0,53979492
1467,58715820;-0,54060054
1467,59094238;-0,54140627
1467,59509277;-0,54221189
1467,59912109;-0,54221189
1467,60620117;-0,54140627
1467,60693359;-0,54221189
1467,61120605;-0,54301751
1467,61535645;-0,54462886
1467,61914063;-0,54462886
1467,62341309;-0,54543459
1467,62719727;-0,54785156
1467,63122559;-0,55107415
1467,63513184;-0,55349123
1467,63916016;-0,55429685
1467,64294434;-0,55429685
1467,64709473;-0,55671382
1467,65087891;-0,55913079
1467,65502930;-0,55993652
1467,65893555;-0,56074214
1467,66296387;-0,56235349
1467,66711426;-0,56315911
1467,67102051;-0,56235349
1467,67492676;-0,56396484
1467,67956543;-0,56557620
1467,68286133;-0,56638181
1467,68713379;-0,56879878
1467,69079590;-0,57121575
1467,69506836;-0,57282710
1467,69885254;-0,57363284
1467,70312500;-0,57363284
1467,70727539;-0,57685542
1467,71093750;-0,57846677
1467,71508789;-0,58007813
1467,71899414;-0,58007813
1467,72290039;-0,58007813
1467,72705078;-0,58088374
1467,73083496;-0,58007813
1467,73510742;-0,58249509
1467,73913574;-0,58330071
1467,74304199;-0,58491206
1467,74694824;-0,58652341
1467,75109863;-0,58974612
1467,75512695;-0,58974612
1467,75891113;-0,59216309
1467,76293945;-0,59296870
1467,76708984;-0,59458005
1467,77124023;-0,59699702
1467,77490234;-0,59619141
1467,77893066;-0,59699702
1467,78601074;-0,59780276
1467,78796387;-0,59780276
1467,79101563;-0,59780276
1467,79541016;-0,59860837
1467,79919434;-0,60183108
1467,80334473;-0,60424805
1467,80725098;-0,60585940
1467,81091309;-0,60505366
1467,81506348;-0,60505366
1467,81909180;-0,60505366
1467,82287598;-0,60585940
1467,82727051;-0,60908198
1467,83093262;-0,60908198
1467,83496094;-0,61069334
1467,83898926;-0,61069334
1467,84313965;-0,61230469
1467,85021973;-0,61472166
1467,85095215;-0,61472166
1467,85498047;-0,61552727
1467,85949707;-0,61713862
1467,86340332;-0,61874998
1467,86730957;-0,62036133
1467,87121582;-0,62116694
1467,87536621;-0,62197268
1467,87902832;-0,62358391
1467,88293457;-0,62438965
1467,88696289;-0,62680662
1467,89086914;-0,62680662
1467,89501953;-0,62761223
1467,89892578;-0,62841797
1467,90295410;-0,63002932
1467,90722656;-0,63083494
1467,91101074;-0,63164055
1467,91503906;-0,63164055
1467,91894531;-0,63405764
1467,92285156;-0,63325191
1467,92712402;-0,63325191
1467,93127441;-0,63325191
1467,93481445;-0,63405764
1467,93908691;-0,63405764
1467,94287109;-0,63164055
1467,94702148;-0,62841797
1467,95080566;-0,62519526
1467,95483398;-0,62358391
1467,95898438;-0,62036133
1467,96301270;-0,61713862
1467,96704102;-0,61149895
1467,97106934;-0,60585940
1467,97497559;-0,59941399
1467,97888184;-0,59458005
1467,98291016;-0,58813477
1467,98681641;-0,58088374
1467,99084473;-0,57524407
1467,99487305;-0,56879878
1467,99902344;-0,56396484
1468,00329590;-0,55913079
1468,00708008;-0,55429685
1468,01135254;-0,55026853
1468,01525879;-0,54704583
1468,01904297;-0,54382324
1468,02294922;-0,54060054
1468,02697754;-0,53818357
1468,03076172;-0,53496087
1468,03503418;-0,53334963
1468,03906250;-0,53093255
1468,04296875;-0,52690423
1468,04687500;-0,52368164
1468,05102539;-0,52207029
1468,05493164;-0,51884758
1468,05895996;-0,51804197
1468,06286621;-0,51562500
1468,06713867;-0,51401365
1468,07092285;-0,51240230
1468,07495117;-0,50756836
1468,07910156;-0,50595701
1468,08288574;-0,50595701
1468,08715820;-0,50515139
1468,09106445;-0,50354004
1468,09509277;-0,50273430
1468,09912109;-0,50192869
1468,10302734;-0,49951172
1468,10693359;-0,49951172
1468,11096191;-0,49709475
1468,11486816;-0,49628901
1468,11901855;-0,49709475
1468,12280273;-0,49628901
1468,12695313;-0,49628901
1468,13085938;-0,49628901
1468,13500977;-0,49790037
1468,13903809;-0,50031734
1468,14282227;-0,50273430
1468,14685059;-0,50434566
1468,15100098;-0,50595701
1468,15502930;-0,50917971
1468,15917969;-0,51240230
1468,16320801;-0,51562500
1468,16735840;-0,51884758
1468,17211914;-0,51884758
1468,17492676;-0,52126467
1468,17883301;-0,52368164
1468,18298340;-0,52529299
1468,18701172;-0,52690423
1468,19091797;-0,52851558
1468,19482422;-0,52932131
1468,19897461;-0,53093255
1468,20288086;-0,53254390
1468,20727539;-0,53415525
1468,21105957;-0,53496087
1468,21496582;-0,53818357
1468,21899414;-0,54060054
1468,22290039;-0,54140627
1468,22802734;-0,54221189
1468,23107910;-0,54221189
1468,23498535;-0,54301751
1468,23889160;-0,54462886
1468,24316406;-0,54462886
1468,24731445;-0,54462886
1468,25109863;-0,54462886
1468,25488281;-0,54704583
1468,25903320;-0,54865718
1468,26293945;-0,55026853
1468,26708984;-0,55026853
1468,27087402;-0,55107415
1468,27502441;-0,55107415
1468,27905273;-0,55107415
1468,28283691;-0,55107415
1468,28686523;-0,55268550
1468,29113770;-0,55429685
1468,29492188;-0,55590820
1468,29907227;-0,55671382
1468,30285645;-0,55751956
1468,30712891;-0,56074214
1468,31103516;-0,56074214
1468,31494141;-0,56235349
1468,31884766;-0,56557620
1468,32299805;-0,56557620
1468,32714844;-0,56718743
1468,33081055;-0,56879878
1468,33496094;-0,56960452
1468,33874512;-0,57041013
1468,34301758;-0,57041013
1468,34704590;-0,57363284
1468,35095215;-0,57604980
1468,35510254;-0,57685542
1468,35925293;-0,57685542
1468,36291504;-0,57685542
1468,36694336;-0,57846677
1468,37109375;-0,58007813
1468,37500000;-0,58168948
1468,37890625;-0,58330071
1468,38281250;-0,58330071
1468,38696289;-0,58491206
1468,39099121;-0,58652341
1468,39501953;-0,58652341
1468,39892578;-0,58974612
1468,40283203;-0,59135735
1468,40698242;-0,59216309
1468,41088867;-0,59296870
1468,41540527;-0,59377444
1468,41906738;-0,59458005
1468,42285156;-0,59699702
1468,42687988;-0,59860837
1468,43090820;-0,59780276
1468,43481445;-0,59941399
1468,43896484;-0,60183108
1468,44287109;-0,60263669
1468,44714355;-0,60424805
1468,45080566;-0,60585940
1468,45495605;-0,60666502
1468,45886230;-0,61069334
1468,46582031;-0,61391604
1468,46765137;-0,61472166
1468,47338867;-0,61713862
1468,47509766;-0,61713862
1468,47961426;-0,61794436
1468,48315430;-0,61874998
1468,48718262;-0,61874998
1468,49133301;-0,62197268
1468,49511719;-0,62519526
1468,49938965;-0,62680662
1468,50317383;-0,62841797
1468,50695801;-0,63083494
1468,51123047;-0,63244629
1468,51513672;-0,63325191
1468,51904297;-0,63486326
1468,52282715;-0,63486326
1468,52685547;-0,63486326
1468,53100586;-0,63647461
1468,53491211;-0,63728023
1468,54223633;-0,63647461
1468,54431152;-0,63486326
1468,54772949;-0,63566887
1468,55090332;-0,63647461
1468,55505371;-0,63728023
1468,55908203;-0,63808596
1468,56335449;-0,63808596
1468,56787109;-0,63808596
1468,57116699;-0,64050293
1468,57507324;-0,63969719
1468,57910156;-0,64130855
1468,58300781;-0,64130855
1468,58703613;-0,64130855
1468,59094238;-0,63969719
1468,59497070;-0,63808596
1468,59899902;-0,63728023
1468,60314941;-0,63405764
1468,60693359;-0,63244629
1468,61096191;-0,62841797
1468,61486816;-0,62197268
1468,61901855;-0,61552727
1468,62292480;-0,60908198
1468,62719727;-0,60021973
1468,63098145;-0,59377444
1468,63488770;-0,58652341
1468,63916016;-0,58007813
1468,64318848;-0,57282710
1468,64697266;-0,56638181
1468,65100098;-0,55913079
1468,65490723;-0,55429685
1468,65905762;-0,54946291
1468,66296387;-0,54462886
1468,66723633;-0,54301751
1468,67089844;-0,53979492
1468,67492676;-0,53657222
1468,67907715;-0,53334963
1468,68298340;-0,53012693
1468,68688965;-0,52690423
1468,69104004;-0,52770996
1468,69494629;-0,52448726
1468,69885254;-0,52368164
1468,70288086;-0,52207029
1468,70715332;-0,51884758
1468,71093750;-0,51884758
1468,71496582;-0,51804197
1468,71899414;-0,51562500
1468,72314453;-0,51401365
1468,72729492;-0,51240230
1468,73095703;-0,50917971
1468,73486328;-0,50837398
1468,73913574;-0,50756836
1468,74304199;-0,50595701
1468,74694824;-0,50515139
1468,75097656;-0,50354004
1468,75476074;-0,50434566
1468,75903320;-0,50434566
1468,76293945;-0,50354004
1468,76684570;-0,50273430
1468,77099609;-0,50192869
1468,77502441;-0,50273430
1468,77990723;-0,50273430
1468,78320313;-0,50595701
1468,78674316;-0,50917971
1468,79113770;-0,51159668
1468,79541016;-0,51320803
1468,79907227;-0,51481926
1468,80358887;-0,51804197
1468,80725098;-0,52045894
1468,81115723;-0,52368164
1468,81494141;-0,52529299
1468,81896973;-0,53012693
1468,82324219;-0,53496087
1468,82714844;-0,53818357
1468,83093262;-0,54140627
1468,83496094;-0,54462886
1468,83947754;-0,54624021
1468,84289551;-0,54785156
1468,84704590;-0,55026853
1468,85107422;-0,55107415
1468,85498047;-0,55107415
1468,85888672;-0,55349123
1468,86315918;-0,55349123
1468,86730957;-0,55510247
1468,87097168;-0,55590820
1468,87500000;-0,55751956
1468,87890625;-0,55751956
1468,88305664;-0,55913079
1468,88696289;-0,56074214
1468,89099121;-0,56235349
1468,89489746;-0,56557620
1468,89904785;-0,56879878
1468,90295410;-0,56960452
1468,90710449;-0,57041013
1468,91088867;-0,57282710
1468,91491699;-0,57524407
1468,91894531;-0,57685542
1468,92297363;-0,57927239
1468,92687988;-0,58168948
1468,93103027;-0,58410645
1468,93493652;-0,58652341
1468,93896484;-0,58813477
1468,94299316;-0,58974612
1468,94702148;-0,59216309
1468,95141602;-0,59296870
1468,95495605;-0,59296870
1468,95898438;-0,59458005
1468,96301270;-0,59458005
1468,96716309;-0,59296870
1468,97094727;-0,59458005
1468,97497559;-0,59538567
1468,97900391;-0,59458005
1468,98291016;-0,59538567
1468,98693848;-0,59619141
1468,99084473;-0,59619141
1468,99499512;-0,59619141
1468,99890137;-0,59619141
1469,00280762;-0,59619141
1469,00708008;-0,59780276
1469,01110840;-0,59619141
1469,01525879;-0,59619141
1469,01892090;-0,59619141
1469,02294922;-0,59619141
1469,02734375;-0,59619141
1469,03100586;-0,59780276
1469,03503418;-0,59619141
1469,03894043;-0,59458005
1469,04296875;-0,59538567
1469,04699707;-0,59780276
1469,05090332;-0,59860837
1469,05493164;-0,59860837
1469,05895996;-0,59941399
1469,06298828;-0,59941399
1469,06713867;-0,60102534
1469,07092285;-0,60102534
1469,07495117;-0,60102534
1469,07885742;-0,60424805
1469,08288574;-0,60424805
1469,08679199;-0,60424805
1469,09094238;-0,60505366
1469,09631348;-0,60424805
1469,09912109;-0,60585940
1469,10339355;-0,60585940
1469,10717773;-0,60827637
1469,11120605;-0,60747063
1469,11499023;-0,60747063
1469,11889648;-0,60908198
1469,12304688;-0,61149895
1469,12695313;-0,61230469
1469,13098145;-0,61149895
1469,13488770;-0,61069334
1469,13891602;-0,61149895
1469,14294434;-0,61149895
1469,14697266;-0,61311030
1469,15087891;-0,61472166
1469,15502930;-0,61713862
1469,16027832;-0,61794436
1469,16296387;-0,62036133
1469,16687012;-0,62277830
1469,17089844;-0,62197268
1469,17517090;-0,62438965
1469,17919922;-0,62519526
1469,18298340;-0,62519526
1469,18737793;-0,62519526
1469,19116211;-0,62761223
1469,19519043;-0,62519526
1469,19897461;-0,62841797
1469,20312500;-0,62841797
1469,20715332;-0,63002932
1469,21118164;-0,63083494
1469,21484375;-0,63244629
1469,21899414;-0,63486326
1469,22314453;-0,63808596
1469,22705078;-0,63808596
1469,23095703;-0,63808596
1469,23510742;-0,63969719
1469,23913574;-0,63808596
1469,24304199;-0,63808596
1469,24731445;-0,63647461
1469,25109863;-0,63405764
1469,25500488;-0,63164055
1469,25903320;-0,62680662
1469,26306152;-0,62277830
1469,26733398;-0,62036133
1469,27124023;-0,61230469
1469,27502441;-0,60827637
1469,27905273;-0,60263669
1469,28308105;-0,59780276
1469,28759766;-0,59135735
1469,29113770;-0,58491206
1469,29504395;-0,58007813
1469,29919434;-0,57604980
1469,30322266;-0,57041013
1469,30688477;-0,56718743
1469,31091309;-0,56396484
1469,31506348;-0,55993652
1469,31884766;-0,55671382
1469,32287598;-0,55429685
1469,32702637;-0,55107415
1469,33117676;-0,54946291
1469,33496094;-0,54946291
1469,33935547;-0,54946291
1469,34301758;-0,54785156
1469,34741211;-0,54785156
1469,35119629;-0,54704583
1469,35498047;-0,54624021
1469,35876465;-0,54462886
1469,36303711;-0,54462886
1469,36706543;-0,54301751
1469,37097168;-0,54060054
1469,37487793;-0,53979492
1469,37939453;-0,53979492
1469,38293457;-0,54060054
1469,38684082;-0,54060054
1469,39086914;-0,54140627
1469,39575195;-0,54301751
1469,40637207;-0,54301751
1469,40637207;-0,54382324
1469,40734863;-0,54462886
1469,41101074;-0,54462886
1469,41528320;-0,54462886
1469,41906738;-0,54624021
1469,42321777;-0,54624021
1469,42712402;-0,54624021
1469,43115234;-0,54704583
1469,43505859;-0,54946291
1469,43920898;-0,54865718
1469,44348145;-0,55107415
1469,44714355;-0,55268550
1469,45092773;-0,55429685
1469,45483398;-0,55429685
1469,45996094;-0,55590820
1469,46289063;-0,55590820
1469,46691895;-0,55590820
1469,47082520;-0,55671382
1469,47497559;-0,55671382
1469,47949219;-0,55751956
1469,48291016;-0,55913079
1469,48706055;-0,55913079
1469,49096680;-0,56074214
1469,49511719;-0,56074214
1469,49902344;-0,55993652
1469,50292969;-0,56074214
1469,50744629;-0,56074214
1469,51110840;-0,56235349
1469,51501465;-0,56235349
1469,51879883;-0,56074214
1469,52294922;-0,56074214
1469,52697754;-0,56074214
1469,53100586;-0,56074214
1469,53491211;-0,55993652
1469,53894043;-0,56154788
1469,54309082;-0,56235349
1469,54724121;-0,56396484
1469,55090332;-0,56396484
1469,55505371;-0,56477046
1469,55895996;-0,56477046
1469,56286621;-0,56557620
1469,56774902;-0,56477046
1469,57104492;-0,56718743
1469,57495117;-0,56879878
1469,57897949;-0,56718743
1469,58300781;-0,56718743
1469,58703613;-0,56879878
1469,59106445;-0,56879878
1469,59484863;-0,56960452
1469,59899902;-0,57202148
1469,60290527;-0,57202148
1469,60717773;-0,57282710
1469,61096191;-0,57685542
1469,61486816;-0,57846677
1469,61901855;-0,58007813
1469,62292480;-0,58007813
1469,62683105;-0,58007813
1469,63085938;-0,58168948
1469,63488770;-0,58168948
1469,63903809;-0,58330071
1469,64294434;-0,58491206
1469,64685059;-0,58652341
1469,65100098;-0,58652341
1469,65502930;-0,58894038
1469,65893555;-0,58974612
1469,66320801;-0,59458005
1469,66748047;-0,59538567
1469,67126465;-0,59780276
1469,67517090;-0,60183108
1469,67919922;-0,60183108
1469,68310547;-0,60505366
1469,68701172;-0,60585940
1469,69104004;-0,60827637
1469,69494629;-0,61149895
1469,69897461;-0,61311030
1469,70300293;-0,61391604
1469,70690918;-0,61472166
1469,71093750;-0,61713862
1469,71496582;-0,61713862
1469,71899414;-0,61794436
1469,72448730;-0,61874998
1469,72839355;-0,62116694
1469,73107910;-0,62116694
1469,73498535;-0,62277830
1469,73901367;-0,62519526
1469,74340820;-0,62680662
1469,74719238;-0,62841797
1469,75109863;-0,62841797
1469,75476074;-0,63164055
1469,75878906;-0,63325191
1469,76293945;-0,63647461
1469,76708984;-0,63808596
1469,77087402;-0,64050293
1469,77490234;-0,64130855
1469,77905273;-0,64372551
1469,78308105;-0,64453125
1469,78698730;-0,64453125
1469,79101563;-0,64614260
1469,79504395;-0,64694822
1469,79919434;-0,64614260
1469,80310059;-0,64775383
1469,80700684;-0,64775383
1469,81127930;-0,64936519
1469,81518555;-0,65097654
1469,81909180;-0,65258789
1469,82275391;-0,65339351
1469,82702637;-0,65419918
1469,83105469;-0,65419918
1469,83496094;-0,65581053
1469,83898926;-0,65581053
1469,84301758;-0,65742183
1469,84692383;-0,65581053
1469,85095215;-0,65419918
1469,85498047;-0,65419918
1469,85913086;-0,65258789
1469,86303711;-0,65097654
1469,86706543;-0,64936519
1469,87097168;-0,64614260
1469,87524414;-0,64291990
1469,87890625;-0,63889158
1469,88293457;-0,63486326
1469,88684082;-0,62761223
1469,89099121;-0,62197268
1469,89514160;-0,61552727
1469,89904785;-0,61069334
1469,90295410;-0,60505366
1469,90771484;-0,59941399
1469,91101074;-0,59296870
1469,91491699;-0,58813477
1469,91894531;-0,58330071
1469,92309570;-0,57927239
1469,92700195;-0,57604980
1469,93103027;-0,57282710
1469,93481445;-0,57041013
1469,93896484;-0,56879878
1469,94299316;-0,56557620
1469,94689941;-0,56235349
1469,95080566;-0,56235349
1469,95483398;-0,56074214
1469,95898438;-0,55751956
1469,96289063;-0,55751956
1469,96679688;-0,55751956
1469,97106934;-0,55590820
1469,97497559;-0,55429685
1469,97937012;-0,55429685
1469,98315430;-0,55349123
1469,98718262;-0,55349123
1469,99084473;-0,55268550
1469,99487305;-0,55187988
1469,99890137;-0,54946291
1470,00292969;-0,54946291
1470,00695801;-0,54785156
1470,01086426;-0,54785156
1470,01489258;-0,55026853
1470,01904297;-0,55107415
1470,02294922;-0,55107415
1470,02685547;-0,55026853
1470,03210449;-0,55026853
1470,03491211;-0,55107415
1470,04003906;-0,55107415
1470,04284668;-0,55268550
1470,04687500;-0,55349123
1470,05114746;-0,55590820
1470,05493164;-0,55671382
1470,05908203;-0,55993652
1470,06311035;-0,55993652
1470,06726074;-0,56235349
1470,07092285;-0,56396484
1470,07495117;-0,56557620
1470,07885742;-0,56879878
1470,08300781;-0,56960452
1470,08703613;-0,57041013
1470,09094238;-0,57282710
1470,09509277;-0,57363284
1470,09899902;-0,57685542
1470,10302734;-0,57846677
1470,10705566;-0,57846677
1470,11083984;-0,58168948
1470,11486816;-0,58168948
1470,11889648;-0,58330071
1470,12280273;-0,58330071
1470,12695313;-0,58330071
1470,13183594;-0,58410645
1470,13513184;-0,58491206
1470,13903809;-0,58330071
1470,14331055;-0,58330071
1470,14709473;-0,58330071
1470,15087891;-0,58330071
1470,15502930;-0,58652341
1470,15893555;-0,58652341
1470,16284180;-0,58813477
1470,16687012;-0,58894038
1470,17114258;-0,59135735
1470,17480469;-0,59135735
1470,17956543;-0,59135735
1470,18310547;-0,59296870
1470,18713379;-0,59458005
1470,19165039;-0,59619141
1470,19519043;-0,59780276
1470,19921875;-0,59780276
1470,20312500;-0,59619141
1470,20751953;-0,59699702
1470,21142578;-0,59780276
1470,21557617;-0,59780276
1470,21960449;-0,59941399
1470,22351074;-0,60263669
1470,22729492;-0,60424805
1470,23095703;-0,60585940
1470,23498535;-0,60585940
1470,23925781;-0,60747063
1470,24304199;-0,60747063
1470,24707031;-0,60747063
1470,25085449;-0,60747063
1470,25512695;-0,60827637
1470,25903320;-0,60908198
1470,26293945;-0,61149895
1470,26708984;-0,61069334
1470,27075195;-0,61230469
1470,27514648;-0,61311030
1470,27929688;-0,61552727
1470,28320313;-0,61552727
1470,28747559;-0,61552727
1470,29113770;-0,61713862
1470,29516602;-0,61874998
1470,29968262;-0,61874998
1470,30322266;-0,62036133
1470,30725098;-0,61874998
1470,31115723;-0,62197268
1470,31506348;-0,62197268
1470,31921387;-0,62358391
1470,32312012;-0,62519526
1470,32714844;-0,62680662
1470,33093262;-0,62922359
1470,33471680;-0,63083494
1470,33898926;-0,63164055
1470,34289551;-0,63164055
1470,34704590;-0,63244629
1470,35473633;-0,63325191
1470,35498047;-0,63486326
1470,35913086;-0,63728023
1470,36315918;-0,63969719
1470,36779785;-0,64050293
1470,37121582;-0,64130855
1470,37512207;-0,63969719
1470,37915039;-0,64130855
1470,38330078;-0,64050293
1470,38732910;-0,64130855
1470,39099121;-0,64372551
1470,39489746;-0,64453125
1470,39904785;-0,64453125
1470,40295410;-0,64533687
1470,40710449;-0,64453125
1470,41088867;-0,64614260
1470,41503906;-0,64614260
1470,41918945;-0,64936519
1470,42285156;-0,64775383
1470,42687988;-0,64775383
1470,43078613;-0,64936519
1470,43481445;-0,64936519
1470,43896484;-0,64936519
1470,44299316;-0,65097654
1470,44677734;-0,65258789
1470,45275879;-0,65258789
1470,45495605;-0,65419918
1470,45910645;-0,65339351
1470,46289063;-0,65178221
1470,46704102;-0,65017086
1470,47106934;-0,64936519
1470,47485352;-0,64694822
1470,47888184;-0,64372551
1470,48291016;-0,63889158
1470,48693848;-0,63325191
1470,49084473;-0,62841797
1470,49487305;-0,62197268
1470,49914551;-0,61552727
1470,50292969;-0,60988772
1470,50683594;-0,60424805
1470,51086426;-0,59780276
1470,51489258;-0,59216309
1470,51892090;-0,58813477
1470,52294922;-0,58249509
1470,52734375;-0,57927239
1470,53100586;-0,57604980
1470,53515625;-0,57524407
1470,53955078;-0,57363284
1470,54309082;-0,57041013
1470,54699707;-0,56879878
1470,55102539;-0,56557620
1470,55493164;-0,56396484
1470,55908203;-0,56315911
1470,56298828;-0,56315911
1470,56689453;-0,56235349
1470,57092285;-0,56315911
1470,57482910;-0,56315911
1470,57897949;-0,56154788
1470,58288574;-0,56074214
1470,58703613;-0,56074214
1470,59082031;-0,55913079
1470,59497070;-0,55913079
1470,59899902;-0,55751956
1470,60314941;-0,55590820
1470,60717773;-0,55590820
1470,61120605;-0,55429685
1470,61511230;-0,55429685
1470,61877441;-0,55429685
1470,62280273;-0,55429685
1470,62707520;-0,55429685
1470,63098145;-0,55429685
1470,63500977;-0,55429685
1470,63903809;-0,55510247
1470,64294434;-0,55590820
1470,64709473;-0,55671382
1470,65087891;-0,55671382
1470,65502930;-0,55751956
1470,65893555;-0,55993652
1470,66296387;-0,56154788
1470,66687012;-0,56315911
1470,67126465;-0,56557620
1470,67517090;-0,56718743
1470,67919922;-0,57041013
1470,68298340;-0,57121575
1470,68725586;-0,57041013
1470,69116211;-0,57041013
1470,69519043;-0,57202148
1470,69946289;-0,57363284
1470,70312500;-0,57363284
1470,70727539;-0,57604980
1470,71093750;-0,57604980
1470,71496582;-0,57846677
1470,71997070;-0,57846677
1470,72302246;-0,57685542
1470,72729492;-0,57846677
1470,73095703;-0,58007813
1470,73510742;-0,58007813
1470,73901367;-0,58168948
1470,74291992;-0,58249509
1470,74743652;-0,58249509
1470,75097656;-0,58330071
1470,75500488;-0,58330071
1470,75903320;-0,58330071
1470,76293945;-0,58330071
1470,76696777;-0,58491206
1470,77099609;-0,58571780
1470,77526855;-0,58652341
1470,77880859;-0,58652341
1470,78308105;-0,58732903
1470,78698730;-0,58813477
1470,79089355;-0,58974612
1470,79492188;-0,58974612
1470,79907227;-0,58974612
1470,80285645;-0,58974612
1470,80688477;-0,59055173
1470,81091309;-0,59216309
1470,81469727;-0,59216309
1470,81896973;-0,59458005
1470,82312012;-0,59538567
1470,82714844;-0,59619141
1470,83154297;-0,59860837
1470,83508301;-0,59941399
1470,83911133;-0,60102534
1470,84313965;-0,60263669
1470,84716797;-0,60263669
1470,85095215;-0,60424805
1470,85498047;-0,60585940
1470,85900879;-0,60747063
1470,86303711;-0,60827637
1470,86694336;-0,60908198
1470,87097168;-0,61069334
1470,87500000;-0,61230469
1470,87902832;-0,61552727
1470,88305664;-0,61552727
1470,88684082;-0,61713862
1470,89086914;-0,61713862
1470,89477539;-0,61874998
1470,89904785;-0,61874998
1470,90307617;-0,62036133
1470,90747070;-0,62197268
1470,91076660;-0,62197268
1470,91528320;-0,62358391
1470,91906738;-0,62358391
1470,92309570;-0,62519526
1470,92712402;-0,62680662
1470,93103027;-0,62761223
1470,93481445;-0,62841797
1470,93908691;-0,62922359
1470,94299316;-0,63164055
1470,94714355;-0,63164055
1470,95092773;-0,63405764
1470,95495605;-0,63486326
1470,95898438;-0,63486326
1470,96289063;-0,63808596
1470,96704102;-0,63647461
1470,97448730;-0,63808596
1470,97497559;-0,63728023
1470,97912598;-0,63808596
1470,98303223;-0,63969719
1470,98706055;-0,64130855
1470,99145508;-0,63969719
1470,99511719;-0,64130855
1470,99938965;-0,64291990
1471,00305176;-0,64372551
1471,00708008;-0,64453125
1471,01098633;-0,64453125
1471,01501465;-0,64533687
1471,01892090;-0,64453125
1471,02294922;-0,64372551
1471,02697754;-0,64372551
1471,03100586;-0,64614260
1471,03503418;-0,64614260
1471,03918457;-0,64614260
1471,04309082;-0,64694822
1471,04699707;-0,64694822
1471,05102539;-0,65017086
1471,05493164;-0,64936519
1471,05895996;-0,65017086
1471,06298828;-0,65017086
1471,06713867;-0,64775383
1471,07104492;-0,64694822
1471,07507324;-0,64614260
1471,07897949;-0,64453125
1471,08288574;-0,63969719
1471,08691406;-0,63486326
1471,09094238;-0,63083494
1471,09484863;-0,62519526
1471,09887695;-0,61874998
1471,10290527;-0,61391604
1471,10693359;-0,61069334
1471,11096191;-0,60344231
1471,11474609;-0,59699702
1471,11901855;-0,59216309
1471,12304688;-0,58974612
1471,12695313;-0,58732903
1471,13085938;-0,58410645
1471,13500977;-0,58007813
1471,13891602;-0,57846677
1471,14318848;-0,57604980
1471,14685059;-0,57363284
1471,15112305;-0,57202148
1471,15527344;-0,57041013
1471,15893555;-0,57041013
1471,16357422;-0,56718743
1471,16674805;-0,56718743
1471,17089844;-0,56477046
1471,17492676;-0,56557620
1471,17944336;-0,56477046
1471,18334961;-0,56315911
1471,18737793;-0,56235349
1471,19104004;-0,56074214
1471,19506836;-0,55913079
1471,19921875;-0,55913079
1471,20300293;-0,55751956
1471,20703125;-0,55671382
1471,21093750;-0,55832517
1471,21533203;-0,55751956
1471,21923828;-0,55913079
1471,22326660;-0,55751956
1471,22766113;-0,55590820
1471,23120117;-0,55590820
1471,23596191;-0,55590820
1471,23889160;-0,55429685
1471,24365234;-0,55590820
1471,24719238;-0,55590820
1471,25109863;-0,55590820
1471,25524902;-0,55751956
1471,25891113;-0,55913079
1471,26306152;-0,56074214
1471,26708984;-0,56315911
1471,27087402;-0,56638181
1471,27502441;-0,56960452
1471,27905273;-0,57041013
1471,28332520;-0,57202148
1471,28723145;-0,57363284
1471,29101563;-0,57524407
1471,29504395;-0,57685542
1471,29907227;-0,57766116
1471,30285645;-0,57927239
1471,30688477;-0,58168948
1471,31127930;-0,58330071
1471,31494141;-0,58410645
1471,31909180;-0,58491206
1471,32287598;-0,58652341
1471,32714844;-0,58813477
1471,33093262;-0,58813477
1471,33496094;-0,58894038
1471,33886719;-0,58974612
1471,34301758;-0,58813477
1471,34692383;-0,58813477
1471,35095215;-0,59055173
1471,35607910;-0,59135735
1471,35900879;-0,59296870
1471,36291504;-0,59377444
1471,36718750;-0,59458005
1471,37097168;-0,59458005
1471,37500000;-0,59619141
1471,37902832;-0,59780276
1471,38293457;-0,59941399
1471,38708496;-0,60102534
1471,39099121;-0,60102534
1471,39501953;-0,60424805
1471,39892578;-0,60424805
1471,40295410;-0,60747063
1471,40710449;-0,60908198
1471,41101074;-0,60988772
1471,41479492;-0,61230469
1471,41882324;-0,61230469
1471,42297363;-0,61149895
1471,42687988;-0,61391604
1471,43103027;-0,61230469
1471,43493652;-0,61149895
1471,43896484;-0,61230469
1471,44311523;-0,61230469
1471,44689941;-0,61391604
1471,45080566;-0,61552727
1471,45495605;-0,61391604
1471,45898438;-0,61230469
1471,46386719;-0,61069334
1471,46752930;-0,61069334
1471,47119141;-0,61149895
1471,47497559;-0,61230469
1471,47912598;-0,61069334
1471,48291016;-0,61069334
1471,48718262;-0,61069334
1471,49096680;-0,61149895
1471,49499512;-0,61149895
1471,49877930;-0,61069334
1471,50292969;-0,61069334
1471,50708008;-0,61149895
1471,51098633;-0,61149895
1471,51489258;-0,61230469
1471,51892090;-0,61230469
1471,52307129;-0,61230469
1471,52697754;-0,61391604
1471,53137207;-0,61391604
1471,53515625;-0,61311030
1471,53906250;-0,61230469
1471,54284668;-0,61230469
1471,54711914;-0,61230469
1471,55102539;-0,61391604
1471,55505371;-0,61391604
1471,55895996;-0,61552727
1471,56298828;-0,61472166
1471,56713867;-0,61552727
1471,57104492;-0,61552727
1471,57482910;-0,61633301
1471,57885742;-0,61552727
1471,58300781;-0,61552727
1471,58691406;-0,61713862
1471,59301758;-0,61713862
1471,59570313;-0,61713862
1471,59899902;-0,61713862
1471,60339355;-0,61874998
1471,60717773;-0,61874998
1471,61096191;-0,62197268
1471,61511230;-0,62197268
1471,61938477;-0,62519526
1471,62329102;-0,62680662
1471,62707520;-0,62680662
1471,63098145;-0,62680662
1471,63500977;-0,62841797
1471,63903809;-0,62841797
1471,64294434;-0,63002932
1471,64709473;-0,63083494
1471,65100098;-0,63325191
1471,65490723;-0,63566887
1471,65893555;-0,63486326
1471,66296387;-0,63808596
1471,66699219;-0,63969719
1471,67089844;-0,63969719
1471,67480469;-0,64130855
1471,67907715;-0,64291990
1471,68286133;-0,64130855
1471,68688965;-0,64050293
1471,69091797;-0,63808596
1471,69506836;-0,63486326
1471,69934082;-0,63083494
1471,70288086;-0,62519526
1471,70703125;-0,62116694
1471,71093750;-0,61713862
1471,71496582;-0,61069334
1471,71887207;-0,60827637
1471,72290039;-0,60263669
1471,72717285;-0,59941399
1471,73095703;-0,59619141
1471,73498535;-0,59296870
1471,73889160;-0,58974612
1471,74291992;-0,58652341
1471,74707031;-0,58491206
1471,75097656;-0,58330071
1471,75476074;-0,58088374
1471,75891113;-0,57927239
1471,76318359;-0,57766116
1471,76696777;-0,57604980
1471,77087402;-0,57202148
1471,77502441;-0,57041013
1471,77893066;-0,56718743
1471,78332520;-0,56638181
1471,78686523;-0,56396484
1471,79113770;-0,56315911
1471,79492188;-0,56074214
1471,79895020;-0,55993652
1471,80285645;-0,55751956
1471,80700684;-0,55671382
1471,81091309;-0,55751956
1471,81494141;-0,55751956
1471,81896973;-0,55590820
1471,82299805;-0,55429685
1471,82702637;-0,55429685
1471,83081055;-0,55429685
1471,83483887;-0,55590820
1471,83898926;-0,55429685
1471,84289551;-0,55429685
1471,84729004;-0,55590820
1471,85241699;-0,55429685
1471,85498047;-0,55671382
1471,85888672;-0,55751956
1471,86291504;-0,55993652
1471,86694336;-0,56154788
1471,87097168;-0,56315911
1471,87500000;-0,56638181
1471,87902832;-0,56718743
1471,88293457;-0,56960452
1471,88708496;-0,57202148
1471,89099121;-0,57685542
1471,89489746;-0,57685542
1471,89892578;-0,58168948
1471,90295410;-0,58330071
1471,90698242;-0,58491206
1471,91259766;-0,58652341
1471,91479492;-0,58894038
1471,91906738;-0,59055173
1471,92321777;-0,58974612
1471,92687988;-0,58974612
1471,93103027;-0,59055173
1471,93493652;-0,58894038
1471,93908691;-0,58652341
1471,94299316;-0,58571780
1471,94702148;-0,58410645
1471,95092773;-0,58330071
1471,95495605;-0,58168948
1471,95922852;-0,58088374
1471,96276855;-0,57846677
1471,96716309;-0,57685542
1471,97094727;-0,57685542
1471,97985840;-0,57443845
1471,97985840;-0,57524407
1471,98291016;-0,57363284
1471,98693848;-0,57363284
1471,99096680;-0,57363284
1471,99487305;-0,57363284
1471,99902344;-0,57363284
1472,00305176;-0,57363284
1472,00732422;-0,57363284
1472,01147461;-0,57363284
1472,01513672;-0,57363284
1472,01916504;-0,57524407
1472,02282715;-0,57524407
1472,02685547;-0,57604980
1472,03100586;-0,57685542
1472,03491211;-0,57846677
1472,03967285;-0,57927239
1472,04284668;-0,58088374
1472,04699707;-0,58249509
1472,05090332;-0,58491206
1472,05493164;-0,58491206
1472,05895996;-0,58330071
1472,06298828;-0,58330071
1472,06677246;-0,58330071
1472,07080078;-0,58491206
1472,07482910;-0,58491206
1472,07897949;-0,58491206
1472,08300781;-0,58652341
1472,08715820;-0,58813477
1472,09094238;-0,58974612
1472,09509277;-0,59135735
1472,09899902;-0,59216309
1472,10290527;-0,59135735
1472,10681152;-0,59135735
1472,11083984;-0,58974612
1472,11511230;-0,59135735
1472,11889648;-0,59216309
1472,12292480;-0,59216309
1472,12695313;-0,59458005
1472,13098145;-0,59458005
1472,13488770;-0,59699702
1472,13891602;-0,59860837
1472,14294434;-0,59941399
1472,14697266;-0,60424805
1472,15087891;-0,60424805
1472,15478516;-0,60585940
1472,15893555;-0,60666502
1472,16296387;-0,60908198
1472,16699219;-0,61069334
1472,17175293;-0,61230469
1472,17541504;-0,61391604
1472,17944336;-0,61552727
1472,18298340;-0,61794436
1472,18725586;-0,62036133
1472,19091797;-0,62116694
1472,19494629;-0,62036133
1472,19885254;-0,62036133
1472,20300293;-0,61874998
1472,20703125;-0,61874998
1472,21093750;-0,62036133
1472,21496582;-0,62197268
1472,21887207;-0,62519526
1472,22326660;-0,62438965
1472,22729492;-0,62519526
1472,23095703;-0,62841797
1472,23535156;-0,63002932
1472,23913574;-0,63083494
1472,24316406;-0,63325191
1472,24768066;-0,63405764
1472,25085449;-0,63486326
1472,25500488;-0,63647461
1472,25891113;-0,63647461
1472,26293945;-0,63808596
1472,26721191;-0,63647461
1472,27099609;-0,63728023
1472,27490234;-0,63486326
1472,27905273;-0,63325191
1472,28295898;-0,62841797
1472,28723145;-0,62600100
1472,29113770;-0,62197268
1472,29504395;-0,61713862
1472,29919434;-0,61149895
1472,30297852;-0,60666502
1472,30700684;-0,60344231
1472,31091309;-0,59941399
1472,31518555;-0,59538567
1472,32373047;-0,59055173
1472,32470703;-0,58652341
1472,32702637;-0,58168948
1472,33093262;-0,58007813
1472,33508301;-0,57524407
1472,33923340;-0,57202148
1472,34301758;-0,56879878
1472,34692383;-0,56718743
1472,35131836;-0,56396484
1472,35498047;-0,56315911
1472,35925293;-0,56074214
1472,36291504;-0,55913079
1472,36730957;-0,55751956
1472,37097168;-0,55751956
1472,37500000;-0,55671382
1472,37915039;-0,55751956
1472,38293457;-0,55429685
1472,38708496;-0,55429685
1472,39123535;-0,55268550
1472,39550781;-0,55268550
1472,39929199;-0,55107415
1472,40295410;-0,54946291
1472,40722656;-0,54785156
1472,41125488;-0,54704583
1472,41552734;-0,54785156
1472,41894531;-0,54704583
1472,42285156;-0,54704583
1472,42724609;-0,54624021
1472,43115234;-0,54704583
1472,43493652;-0,54704583
1472,43896484;-0,54704583
1472,44311523;-0,54785156
1472,44714355;-0,54785156
1472,45104980;-0,54865718
1472,45495605;-0,55026853
1472,45922852;-0,55187988
1472,46313477;-0,55429685
1472,46704102;-0,55671382
1472,47094727;-0,55751956
1472,47509766;-0,55993652
1472,47924805;-0,56235349
1472,48315430;-0,56638181
1472,48730469;-0,56718743
1472,49121094;-0,56718743
1472,49511719;-0,56879878
1472,49902344;-0,56879878
1472,50305176;-0,57041013
1472,50720215;-0,57041013
1472,51098633;-0,57282710
1472,51513672;-0,57282710
1472,51916504;-0,57282710
1472,52282715;-0,57282710
1472,52697754;-0,57363284
1472,53100586;-0,57524407
1472,53491211;-0,57524407
1472,54199219;-0,57524407
1472,54321289;-0,57685542
1472,54748535;-0,57766116
1472,55126953;-0,58007813
1472,55517578;-0,58088374
1472,55908203;-0,58249509
1472,56311035;-0,58249509
1472,56713867;-0,58330071
1472,57080078;-0,58330071
1472,57495117;-0,58330071
1472,57897949;-0,58491206
1472,58288574;-0,58652341
1472,58679199;-0,58813477
1472,59094238;-0,58974612
